40.2
41.1
41.7
42.2
42.8
43.4
44.2
44.7
45.3
46.1
47.3
48.6
49.6
50.3
50.1
49.2
47.8
46.5
45.8
45.4
45.4
45.4
45.3
44.4
43.0
40.9
38.8
36.4
34.1
31.8
29.1
26.5
23.8
21.0
18.4
15.6
12.8
10.0
7.3
4.7
1.7
-1.6
-5.3
-9.2
-12.9
-16.5
-19.6
-22.4
-25.2
-27.7
-30.2
-32.7
-34.9
-37.0
-39.1
-40.9
-42.6
-44.0
-45.4
-46.7
-47.8
-48.4
-48.9
-49.2
-49.6
-50.1
-50.7
-51.3
-52.3
-53.4
-54.6
-55.7
-56.5
-56.8
-57.1
-57.6
-58.2
-58.8
-59.1
-59.3
-59.6
-60.1
-60.7
-61.3
-61.8
-62.1
-62.2
-62.4
-62.7
-63.3
-63.9
-64.6
-65.3
-65.7
-65.7
-65.2
-64.7
-64.6
-64.4
-64.3
-63.9
-63.5
-63.2
-63.0
-62.9
-62.9
-62.9
-63.3
-63.9
-64.4
-64.7
-64.9
-64.9
-64.7
-64.3
-63.0
-61.5
-59.6
-58.0
-56.8
-55.9
-54.9
-53.8
-52.7
-52.0
-51.7
-51.5
-51.5
-51.3
-50.9
-50.3
-49.6
-49.0
-48.2
-47.5
-46.7
-46.2
-45.6
-45.1
-44.7
-44.0
-43.4
-42.8
-42.2
-41.6
-40.9
-40.0
-38.9
-37.8
-36.7
-36.0
-35.3
-35.2
-35.0
-35.3
-35.5
-35.6
-35.6
-35.8
-35.8
-35.6
-35.3
-34.7
-33.9
-33.0
-32.2
-31.4
-31.1
-31.3
-31.9
-32.5
-33.3
-33.8
-33.6
-33.2
-32.7
-32.4
-33.0
-34.2
-36.0
-37.5
-38.8
-39.2
-39.2
-38.8
-38.3
-38.3
-38.4
-38.9
-39.1
-39.1
-38.6
-38.1
-38.0
-38.3
-38.9
-39.5
-40.0
-40.2
-39.7
-39.1
-38.3
-38.0
-38.1
-38.4
-38.8
-38.8
-38.6
-38.6
-38.6
-38.8
-38.8
-38.6
-38.0
-36.9
-35.3
-33.6
-31.9
-30.4
-28.8
-27.7
-26.6
-25.4
-23.8
-22.0
-19.8
-17.1
-14.3
-11.4
-8.6
-6.1
-4.2
-3.0
-2.5
-2.2
-2.0
-2.4
-3.1
-4.4
-5.6
-6.7
-7.5
-8.3
-8.6
-8.7
-8.9
-8.7
-8.7
-9.0
-10.1
-12.6
-16.5
-21.6
-27.7
-34.1
-40.2
-45.1
-48.6
-50.4
-51.0
-50.9
-50.6
-50.1
-49.6
-49.0
-48.6
-48.1
-47.8
-47.6
-47.8
-48.4
-49.2
-49.9
-50.4
-50.3
-49.6
-49.0
-48.6
-48.4
-48.6
-49.2
-49.9
-50.7
-51.0
-50.9
-50.3
-49.8
-49.3
-49.3
-49.8
-50.3
-50.4
-49.9
-48.9
-47.2
-45.3
-42.6
-38.3
-30.7
-18.7
-1.9
19.8
47.0
79.7
117.8
161.5
209.5
259.4
306.6
344.5
365.7
363.6
334.9
277.5
192.1
84.8
-33.9
-151.3
-256.2
-340.6
-401.0
-437.0
-451.2
-447.3
-430.2
-403.4
-370.5
-333.8
-295.5
-258.2
-222.9
-190.7
-162.4
-138.0
-117.1
-99.7
-85.6
-74.5
-66.6
-61.3
-58.0
-56.0
-54.1
-52.6
-51.0
-49.3
-47.8
-46.2
-44.7
-43.1
-41.9
-40.6
-39.2
-37.7
-36.4
-35.5
-35.0
-35.0
-35.3
-35.5
-35.6
-35.8
-35.8
-35.5
-35.2
-34.7
-33.9
-33.0
-31.8
-30.5
-29.3
-28.3
-27.7
-27.2
-26.8
-26.2
-25.4
-24.3
-23.0
-21.5
-19.9
-18.4
-17.1
-15.9
-14.6
-12.9
-11.1
-9.2
-7.5
-6.2
-5.0
-3.6
-2.0
0.0
2.4
4.5
6.2
7.6
8.7
9.8
11.1
12.6
14.6
17.1
19.8
22.3
24.3
26.2
28.2
30.2
32.2
34.4
36.4
38.1
39.5
40.8
41.7
42.3
42.8
43.7
45.3
47.0
48.6
49.9
50.7
50.9
50.3
49.5
48.9
48.4
48.1
47.8
47.6
47.0
45.9
44.2
42.3
40.3
38.0
35.5
33.0
30.5
28.0
25.7
23.4
21.2
18.8
16.5
13.9
11.2
8.3
5.0
1.6
-1.6
-4.7
-8.0
-11.2
-14.5
-18.1
-21.6
-25.2
-28.5
-31.3
-33.3
-34.9
-36.0
-37.2
-38.8
-40.9
-43.1
-45.1
-47.2
-48.9
-50.7
-52.4
-54.0
-55.7
-57.1
-58.2
-59.0
-59.1
-59.0
-58.7
-58.3
-58.5
-59.0
-59.6
-60.2
-60.5
-60.7
-60.7
-60.4
-60.2
-60.2
-60.5
-61.0
-61.3
-61.5
-61.6
-61.3
-61.0
-60.7
-60.7
-61.1
-61.8
-62.7
-63.5
-63.9
-63.9
-63.8
-63.5
-63.3
-63.0
-62.9
-62.5
-62.2
-61.8
-61.6
-61.6
-61.5
-61.1
-60.4
-59.6
-59.0
-58.5
-58.3
-58.2
-58.3
-58.7
-59.0
-59.1
-58.7
-57.7
-56.3
-54.9
-53.5
-52.4
-51.3
-50.3
-49.0
-47.8
-46.8
-46.2
-45.8
-45.3
-45.0
-44.7
-44.2
-43.4
-42.3
-41.1
-40.2
-39.4
-38.6
-37.8
-36.9
-35.5
-34.2
-33.3
-32.5
-32.2
-32.2
-32.2
-32.1
-31.8
-31.6
-31.3
-30.7
-30.0
-29.6
-29.4
-29.9
-30.5
-31.3
-31.9
-32.7
-33.6
-34.6
-35.2
-35.5
-35.5
-35.5
-35.6
-35.8
-36.1
-36.3
-36.6
-36.7
-37.2
-37.7
-38.1
-38.4
-38.8
-39.2
-40.2
-41.4
-42.5
-43.1
-43.3
-43.0
-42.6
-42.3
-42.0
-41.9
-41.7
-41.4
-40.9
-40.5
-40.3
-40.3
-40.6
-41.6
-42.6
-43.7
-44.5
-45.0
-45.4
-45.8
-46.1
-46.4
-46.5
-46.7
-46.8
-47.0
-46.8
-46.5
-45.4
-44.2
-43.0
-41.9
-40.8
-39.7
-38.6
-37.4
-36.4
-35.3
-34.1
-32.5
-30.7
-28.5
-26.0
-23.0
-19.8
-16.5
-13.6
-11.7
-11.1
-11.7
-12.9
-14.3
-15.6
-16.4
-17.1
-17.6
-18.2
-18.8
-19.3
-19.5
-19.2
-18.4
-17.8
-17.4
-18.1
-20.1
-23.8
-29.1
-35.5
-41.9
-47.6
-52.3
-55.5
-57.6
-58.8
-59.7
-60.5
-61.1
-61.5
-61.3
-61.1
-61.0
-61.3
-61.8
-62.2
-62.4
-61.9
-61.0
-59.9
-58.8
-58.0
-57.6
-57.4
-56.9
-56.3
-55.9
-55.2
-54.6
-54.3
-54.3
-54.5
-54.5
-53.8
-52.6
-50.9
-49.5
-48.6
-48.2
-48.4
-48.7
-48.2
-46.1
-40.9
-31.8
-18.5
-1.4
19.9
46.1
77.2
113.1
153.7
197.2
240.9
280.0
307.2
316.5
304.2
269.2
210.8
129.7
31.1
-75.5
-179.7
-271.7
-345.8
-398.5
-429.1
-439.1
-432.1
-413.1
-386.3
-354.8
-320.4
-284.5
-249.0
-215.1
-183.9
-155.5
-130.8
-109.8
-92.9
-80.0
-70.5
-63.9
-59.3
-56.0
-54.1
-52.9
-52.3
-51.5
-50.4
-49.0
-47.5
-45.8
-44.0
-42.2
-40.6
-39.2
-38.1
-37.2
-36.1
-34.7
-33.3
-31.8
-30.5
-29.7
-29.4
-29.6
-29.9
-29.7
-29.6
-29.3
-29.1
-29.0
-29.0
-28.8
-28.6
-28.5
-28.0
-27.7
-27.1
-26.3
-25.4
-24.1
-22.9
-21.8
-20.6
-19.3
-17.8
-16.0
-14.2
-12.5
-10.9
-9.5
-8.1
-6.6
-5.0
-3.3
-1.7
-0.2
1.1
2.2
3.4
4.8
6.7
8.9
11.1
13.4
15.9
18.1
20.2
22.1
24.0
25.8
27.7
29.7
31.4
33.0
34.4
35.5
36.6
37.7
38.6
39.2
40.2
40.9
41.9
42.3
42.6
42.8
42.6
42.3
41.7
41.1
40.2
39.1
37.8
36.4
35.2
34.1
33.2
32.5
31.9
30.8
29.1
27.1
24.8
22.6
20.7
19.2
17.4
15.3
12.3
8.7
5.0
1.4
-1.7
-4.5
-7.3
-10.1
-12.9
-15.7
-18.4
-20.9
-23.2
-25.2
-26.9
-28.6
-30.2
-31.9
-33.8
-35.5
-36.9
-38.0
-39.2
-40.6
-42.2
-43.9
-45.8
-47.2
-48.4
-49.2
-49.9
-50.6
-51.0
-51.5
-51.8
-52.0
-52.0
-52.1
-52.3
-52.4
-52.7
-53.5
-54.6
-56.0
-57.3
-58.3
-59.0
-59.1
-59.1
-59.1
-59.6
-60.1
-60.7
-61.3
-61.8
-62.4
-62.9
-63.2
-63.5
-63.9
-64.7
-65.5
-65.8
-66.0
-65.5
-64.9
-63.8
-62.4
-61.0
-59.7
-58.7
-58.0
-57.6
-57.4
-57.3
-57.3
-57.4
-57.9
-58.3
-58.5
-58.5
-58.0
-57.3
-56.2
-55.4
-54.6
-53.8
-53.1
-52.3
-51.2
-49.9
-48.6
-47.3
-46.4
-45.9
-45.4
-45.0
-44.4
-43.9
-43.4
-43.0
-42.8
-42.6
-42.5
-42.2
-42.0
-41.6
-41.1
-40.3
-39.7
-39.2
-38.9
-39.1
-39.5
-40.3
-41.1
-41.9
-42.2
-42.0
-41.6
-40.9
-40.2
-39.4
-38.6
-37.8
-37.2
-36.7
-36.4
-36.0
-35.5
-35.2
-35.0
-34.7
-34.4
-33.9
-33.6
-33.5
-33.8
-34.4
-34.7
-35.0
-35.0
-34.7
-34.7
-35.0
-36.0
-37.2
-38.0
-38.3
-38.1
-37.8
-37.5
-37.5
-37.5
-37.7
-37.7
-37.5
-37.2
-36.6
-35.8
-35.0
-34.7
-34.7
-35.2
-35.8
-36.7
-37.7
-38.3
-38.4
-38.6
-38.9
-39.2
-39.8
-40.0
-39.7
-38.8
-37.5
-36.0
-34.7
-33.6
-32.5
-31.4
-30.4
-29.0
-27.1
-24.8
-22.1
-19.5
-16.5
-13.1
-9.2
-5.5
-2.7
-1.3
-1.4
-2.5
-4.2
-6.1
-7.8
-9.2
-10.1
-10.4
-10.3
-10.0
-9.7
-9.7
-9.8
-9.8
-9.7
-9.5
-9.7
-10.9
-14.3
-19.6
-26.2
-32.4
-38.0
-42.2
-45.1
-47.3
-48.7
-49.8
-50.6
-51.0
-51.0
-50.6
-49.6
-48.6
-47.6
-47.0
-46.8
-47.3
-48.2
-49.2
-49.9
-50.4
-51.2
-52.1
-53.5
-54.8
-55.9
-56.5
-56.5
-56.2
-55.5
-54.8
-54.1
-53.5
-53.5
-53.5
-53.7
-53.7
-53.5
-53.5
-53.4
-52.9
-51.5
-48.1
-41.6
-31.6
-17.3
1.3
24.3
52.0
84.8
122.7
165.3
211.5
258.0
300.0
330.7
343.0
331.4
293.7
229.1
140.2
34.1
-78.1
-185.4
-277.6
-349.0
-397.1
-422.7
-428.6
-419.5
-399.3
-371.9
-339.7
-304.8
-269.9
-236.1
-204.5
-175.8
-149.9
-127.6
-108.7
-93.7
-82.0
-73.4
-67.2
-63.0
-60.2
-58.3
-56.9
-55.9
-54.3
-52.7
-51.2
-49.5
-47.8
-46.1
-44.2
-42.3
-40.5
-38.9
-37.7
-36.3
-35.0
-33.5
-32.1
-30.8
-30.0
-29.4
-29.0
-29.0
-29.0
-29.0
-28.3
-26.9
-25.2
-23.5
-22.4
-22.1
-22.0
-21.8
-21.6
-21.3
-21.0
-20.9
-20.7
-20.6
-20.4
-20.1
-19.2
-17.9
-16.0
-14.2
-12.5
-11.1
-9.8
-8.4
-7.0
-5.6
-4.2
-2.5
-0.8
0.5
1.4
2.4
3.4
4.7
6.4
8.6
11.4
14.2
16.7
19.0
21.2
23.2
25.2
27.4
29.7
32.4
35.0
37.5
39.7
41.4
43.1
44.5
45.9
47.5
48.9
50.1
50.9
51.2
51.2
51.0
51.0
50.9
50.6
49.8
49.0
47.9
46.8
45.8
44.8
43.9
43.0
41.9
40.3
38.1
35.6
33.0
30.5
27.9
25.2
22.7
20.2
17.9
15.6
13.4
10.8
8.0
4.7
1.7
-0.8
-3.4
-5.9
-8.6
-11.2
-13.9
-16.8
-19.9
-22.9
-25.8
-28.6
-31.4
-33.9
-36.0
-37.8
-39.4
-40.9
-42.2
-43.1
-43.7
-44.5
-45.6
-46.8
-47.8
-48.4
-48.7
-49.2
-49.8
-51.0
-52.6
-54.1
-55.2
-55.9
-56.0
-56.0
-56.0
-56.5
-57.1
-57.6
-57.6
-57.1
-56.2
-55.2
-54.1
-53.4
-53.1
-53.2
-53.5
-53.7
-54.0
-54.5
-54.9
-55.5
-56.3
-57.1
-57.7
-57.9
-57.6
-56.9
-56.0
-55.4
-54.9
-54.6
-54.3
-54.0
-53.4
-52.7
-51.8
-51.0
-50.4
-49.9
-49.6
-49.5
-49.6
-49.6
-49.5
-49.2
-48.7
-48.4
-48.4
-48.6
-48.9
-49.3
-49.3
-49.0
-48.2
-47.5
-46.8
-46.2
-45.4
-44.2
-42.6
-41.2
-39.8
-38.4
-37.4
-36.6
-36.0
-35.3
-34.4
-33.5
-32.5
-31.3
-30.2
-29.3
-28.3
-27.4
-26.5
-25.2
-24.4
-23.8
-23.5
-23.7
-24.1
-24.9
-25.8
-26.8
-27.7
-28.5
-29.4
-30.0
-30.7
-31.0
-31.3
-31.4
-31.4
-31.1
-30.5
-29.6
-29.1
-29.3
-30.0
-31.0
-31.9
-32.5
-32.7
-32.4
-31.9
-31.4
-31.0
-31.0
-31.3
-31.8
-32.1
-32.1
-32.2
-32.4
-32.7
-32.7
-32.5
-32.2
-31.8
-31.6
-31.8
-32.4
-33.5
-34.9
-36.6
-38.0
-38.9
-39.5
-39.8
-40.0
-40.0
-40.3
-40.6
-41.1
-41.1
-40.6
-39.8
-39.1
-38.6
-38.4
-38.4
-38.8
-38.9
-38.6
-38.0
-36.9
-35.5
-34.2
-33.3
-32.8
-32.2
-31.0
-29.0
-26.3
-23.0
-19.3
-15.6
-12.2
-9.4
-7.3
-6.1
-5.8
-6.2
-6.9
-7.8
-8.9
-10.1
-11.5
-12.9
-14.2
-15.1
-15.6
-15.4
-15.0
-14.0
-13.1
-12.5
-12.3
-13.1
-15.3
-19.3
-24.9
-31.4
-38.0
-43.6
-48.4
-52.1
-54.6
-55.9
-56.2
-56.3
-56.5
-56.9
-57.1
-57.1
-56.6
-56.3
-55.9
-55.4
-54.9
-54.8
-54.6
-54.8
-54.9
-54.9
-54.9
-54.9
-55.1
-55.5
-55.7
-55.7
-55.2
-54.6
-54.1
-53.7
-53.1
-52.6
-52.4
-52.6
-53.1
-53.4
-53.4
-52.9
-52.1
-50.7
-48.4
-43.3
-34.2
-20.4
-1.6
21.8
49.9
83.4
122.1
166.3
214.5
264.1
310.1
345.8
363.3
356.6
322.1
258.7
168.1
57.4
-61.8
-177.3
-278.6
-358.0
-413.1
-443.9
-453.4
-446.1
-426.5
-398.2
-364.4
-327.4
-289.3
-251.8
-216.5
-184.0
-155.2
-130.5
-110.0
-93.8
-81.4
-72.5
-66.4
-62.7
-60.4
-58.7
-56.8
-55.1
-53.4
-51.8
-50.6
-49.3
-47.8
-45.9
-43.7
-41.6
-39.5
-37.7
-36.0
-34.7
-33.6
-32.8
-32.2
-31.4
-30.4
-29.1
-27.9
-26.8
-26.3
-26.3
-26.5
-26.5
-26.2
-25.7
-24.9
-23.8
-22.4
-21.0
-20.1
-19.3
-18.7
-17.9
-17.0
-15.7
-14.3
-12.8
-11.2
-9.5
-7.8
-6.2
-4.8
-3.1
-1.6
0.0
1.1
2.0
3.1
4.7
6.7
9.2
11.8
14.0
15.7
17.4
19.2
21.0
23.4
25.8
28.8
31.8
34.6
37.2
39.5
41.6
43.3
44.8
46.5
48.2
50.1
51.8
53.4
54.6
55.7
56.6
57.4
58.2
58.8
59.3
59.1
58.8
58.3
57.9
57.4
56.9
56.5
56.5
56.5
56.6
56.5
55.9
54.6
52.7
50.7
48.2
45.6
42.8
39.8
36.9
33.9
31.1
28.2
25.5
23.0
20.2
17.1
13.7
10.3
6.7
3.0
-0.8
-4.5
-8.3
-12.0
-15.7
-19.3
-22.6
-25.4
-27.9
-30.2
-32.5
-34.6
-36.4
-38.4
-40.5
-42.3
-43.9
-45.1
-46.4
-47.6
-48.7
-49.9
-51.0
-52.1
-53.1
-53.8
-54.6
-55.4
-56.0
-56.3
-56.6
-56.8
-56.9
-57.3
-57.6
-57.6
-57.9
-58.3
-59.3
-60.2
-61.1
-61.9
-62.5
-63.3
-64.1
-64.9
-65.8
-66.9
-67.8
-68.8
-69.4
-69.9
-69.9
-69.7
-69.7
-69.7
-69.7
-69.5
-69.4
-69.2
-68.9
-68.3
-67.7
-67.2
-66.9
-66.6
-66.4
-66.3
-66.0
-65.3
-64.4
-63.6
-63.0
-62.9
-62.9
-62.7
-62.5
-62.2
-61.6
-60.8
-60.1
-59.4
-59.0
-58.3
-57.7
-57.1
-56.5
-56.0
-55.9
-56.2
-56.5
-56.3
-55.5
-54.0
-51.8
-49.9
-48.6
-47.8
-47.5
-47.2
-47.0
-46.4
-45.6
-44.7
-43.9
-43.3
-42.8
-42.8
-43.0
-43.3
-43.4
-43.4
-43.1
-42.5
-41.9
-41.1
-40.3
-39.5
-38.9
-38.6
-38.6
-38.8
-39.2
-39.5
-39.7
-39.5
-39.1
-38.8
-38.4
-38.4
-38.8
-39.4
-40.2
-41.1
-41.9
-42.5
-43.0
-43.0
-42.6
-42.2
-41.9
-41.9
-42.0
-42.3
-42.6
-42.6
-42.6
-42.6
-43.1
-44.0
-45.0
-45.4
-45.3
-44.8
-44.4
-44.2
-44.5
-44.8
-45.3
-45.4
-45.3
-45.1
-44.8
-44.2
-43.6
-42.8
-42.6
-43.0
-43.4
-44.0
-44.4
-44.4
-44.0
-43.7
-43.4
-43.0
-42.8
-42.3
-41.9
-41.1
-40.5
-39.8
-39.1
-38.0
-36.7
-35.3
-33.6
-31.6
-29.1
-26.5
-23.5
-20.6
-17.3
-13.7
-10.3
-7.6
-6.1
-5.9
-6.6
-7.5
-8.7
-10.1
-11.7
-13.6
-15.3
-16.7
-17.6
-18.5
-19.5
-20.1
-20.4
-20.4
-20.4
-21.0
-22.9
-26.3
-31.3
-37.4
-43.1
-47.8
-51.2
-53.4
-54.6
-55.1
-55.4
-55.5
-56.0
-56.3
-56.3
-56.2
-55.5
-54.8
-54.1
-53.8
-53.7
-53.8
-54.0
-54.1
-54.1
-54.1
-54.0
-54.0
-54.5
-55.1
-55.4
-55.4
-55.1
-54.8
-54.5
-54.3
-54.5
-54.8
-54.9
-54.9
-54.3
-53.4
-52.1
-50.6
-48.7
-45.9
-41.2
-33.8
-22.0
-5.6
15.6
41.4
72.2
107.8
147.9
191.9
237.4
280.3
313.6
329.7
323.7
292.9
236.9
156.6
56.6
-53.4
-162.7
-260.8
-340.6
-398.6
-433.9
-447.9
-444.4
-427.7
-402.2
-371.1
-336.3
-299.6
-262.5
-226.9
-194.0
-164.6
-139.1
-117.4
-99.7
-85.4
-74.7
-66.7
-61.3
-57.4
-54.9
-53.2
-52.3
-51.5
-51.0
-50.4
-49.8
-49.2
-48.2
-47.2
-45.9
-44.5
-43.0
-40.9
-39.1
-37.4
-36.0
-35.0
-34.1
-33.5
-32.8
-32.4
-31.9
-31.3
-30.5
-29.6
-28.2
-26.6
-24.8
-23.0
-21.5
-20.2
-18.8
-17.6
-16.2
-14.6
-12.8
-10.6
-8.3
-6.4
-5.0
-4.5
-4.5
-4.8
-4.8
-4.5
-3.4
-1.7
0.0
1.7
3.3
5.0
6.7
8.3
10.0
11.5
13.1
14.6
16.0
17.6
19.3
21.3
23.5
25.8
27.9
29.6
30.8
31.9
33.0
34.4
36.3
38.4
40.8
42.6
44.2
45.1
45.6
45.9
46.2
46.4
46.7
46.8
46.8
46.7
46.1
45.6
45.3
45.1
44.7
44.2
43.6
42.5
41.2
39.7
38.0
36.3
34.6
33.0
31.4
29.7
28.0
26.3
24.6
22.9
20.7
18.2
15.3
12.3
9.2
5.8
2.2
-1.3
-4.4
-7.0
-9.2
-11.4
-13.7
-16.2
-19.0
-21.6
-24.3
-26.6
-28.5
-30.2
-31.6
-33.2
-34.9
-36.7
-38.3
-39.5
-40.5
-41.2
-42.2
-43.1
-43.9
-44.5
-45.0
-45.4
-46.1
-46.5
-46.7
-46.8
-47.3
-48.2
-49.3
-50.7
-51.8
-52.6
-52.9
-53.1
-53.2
-53.8
-54.8
-55.9
-56.9
-57.7
-58.0
-57.9
-57.4
-56.9
-56.5
-56.6
-56.9
-57.4
-57.9
-58.0
-58.2
-58.3
-58.8
-59.4
-60.2
-60.8
-61.3
-61.5
-61.1
-60.8
-60.4
-60.4
-60.5
-60.5
-60.1
-59.3
-58.0
-56.3
-54.8
-53.5
-53.1
-53.4
-54.0
-54.5
-54.5
-54.1
-53.4
-52.6
-51.7
-50.9
-50.3
-49.5
-48.7
-48.1
-47.2
-46.2
-45.3
-44.4
-43.3
-42.0
-40.5
-38.9
-37.4
-36.3
-35.5
-35.0
-34.6
-33.9
-33.2
-32.2
-31.4
-30.5
-29.6
-29.0
-28.5
-28.5
-28.3
-28.2
-27.7
-27.2
-27.1
-27.1
-27.4
-27.6
-27.9
-28.3
-28.6
-28.6
-28.5
-28.3
-28.6
-29.3
-30.2
-30.8
-31.3
-31.8
-32.2
-32.7
-33.2
-33.6
-34.1
-34.6
-34.6
-34.2
-33.9
-33.6
-33.6
-34.1
-35.0
-36.4
-37.7
-38.6
-39.1
-39.4
-39.5
-39.4
-39.4
-39.4
-39.8
-40.3
-40.9
-41.4
-41.6
-41.9
-42.0
-42.3
-42.5
-42.6
-42.5
-42.0
-41.4
-40.5
-39.5
-39.1
-38.8
-38.6
-38.1
-37.5
-36.6
-35.5
-34.6
-33.8
-33.5
-33.3
-33.0
-32.5
-31.6
-30.2
-28.3
-26.0
-23.5
-21.0
-18.4
-15.3
-12.3
-9.7
-7.8
-7.2
-7.5
-8.7
-10.3
-11.7
-13.1
-14.5
-15.9
-16.8
-17.3
-17.3
-17.0
-16.4
-15.6
-14.8
-14.3
-14.5
-15.7
-19.0
-24.4
-31.4
-38.8
-45.1
-50.3
-53.8
-56.2
-57.6
-58.3
-58.5
-58.5
-58.2
-57.4
-56.8
-56.0
-55.2
-54.8
-54.6
-54.8
-54.9
-55.2
-55.1
-54.6
-54.0
-53.4
-53.1
-53.1
-53.2
-53.1
-52.9
-52.9
-53.2
-53.5
-53.8
-54.3
-54.8
-55.2
-55.4
-55.1
-54.3
-53.4
-52.4
-51.7
-50.4
-48.2
-43.9
-36.4
-25.1
-9.2
11.4
36.6
66.6
101.4
141.2
185.6
232.5
277.6
315.0
337.4
338.4
314.5
264.1
187.9
90.1
-19.8
-130.7
-231.4
-314.6
-375.8
-413.7
-429.7
-427.7
-411.8
-386.8
-355.9
-321.6
-286.2
-251.0
-217.4
-186.0
-157.4
-131.8
-109.7
-91.3
-77.0
-66.3
-58.8
-54.0
-50.7
-48.7
-47.5
-46.4
-45.4
-44.5
-43.9
-43.4
-43.0
-42.0
-41.1
-40.0
-38.8
-37.7
-36.4
-35.3
-34.4
-33.5
-32.4
-31.4
-30.5
-29.4
-28.3
-27.2
-26.0
-24.9
-24.0
-23.2
-22.9
-22.7
-22.9
-23.2
-23.7
-24.3
-24.8
-25.1
-24.9
-24.3
-23.0
-21.5
-19.8
-17.9
-15.9
-13.6
-11.4
-9.4
-7.2
-5.2
-3.3
-1.6
0.0
1.1
2.4
3.9
5.6
7.6
9.7
11.4
13.1
14.8
16.7
18.7
20.6
22.3
24.1
26.2
28.0
29.9
31.8
33.9
36.1
38.4
40.6
42.8
44.7
46.2
47.6
48.9
49.8
50.7
51.5
52.1
52.6
52.4
52.1
51.8
51.8
52.0
52.0
51.5
50.9
49.8
48.6
47.3
46.1
45.1
44.2
43.3
42.0
40.0
37.4
34.4
31.4
28.5
25.5
22.7
20.1
17.4
14.8
11.8
8.6
5.5
2.5
-0.3
-3.6
-7.0
-10.8
-14.6
-18.4
-21.8
-24.8
-27.4
-29.7
-31.9
-33.9
-35.8
-37.7
-39.7
-41.7
-43.6
-45.0
-46.1
-47.2
-48.6
-50.4
-52.1
-53.7
-54.5
-54.6
-54.5
-54.3
-54.6
-55.2
-56.3
-57.4
-58.7
-60.1
-61.3
-62.4
-63.5
-64.3
-65.0
-65.8
-66.4
-66.7
-66.6
-66.3
-66.0
-66.0
-66.1
-66.4
-66.9
-67.2
-67.4
-67.4
-67.4
-67.4
-67.5
-67.8
-68.3
-68.5
-68.5
-68.1
-67.7
-67.2
-67.2
-67.5
-67.7
-67.8
-67.7
-67.2
-66.4
-65.8
-65.2
-65.0
-64.9
-65.0
-65.0
-65.0
-64.9
-64.6
-63.9
-63.3
-62.9
-62.7
-62.5
-62.4
-61.8
-61.0
-59.7
-58.5
-57.6
-56.9
-56.8
-56.6
-56.2
-55.5
-54.6
-53.7
-53.1
-52.4
-52.1
-52.0
-51.5
-50.6
-49.5
-47.9
-46.7
-45.9
-45.6
-45.6
-45.9
-45.8
-45.4
-44.8
-43.7
-42.8
-42.2
-41.7
-41.4
-40.9
-40.5
-39.8
-39.2
-38.8
-38.6
-38.4
-38.3
-38.1
-38.0
-37.8
-37.8
-38.1
-38.9
-39.8
-40.6
-41.2
-41.6
-41.9
-41.9
-41.4
-40.9
-40.8
-41.1
-41.7
-42.5
-43.3
-44.0
-44.7
-44.8
-44.8
-44.7
-44.2
-43.6
-43.0
-42.6
-42.5
-42.3
-42.2
-42.2
-42.6
-43.3
-44.2
-44.8
-45.0
-44.8
-44.4
-43.6
-43.0
-42.8
-43.1
-43.6
-44.2
-44.7
-45.1
-45.4
-45.8
-46.2
-46.5
-46.8
-47.0
-47.0
-46.7
-45.9
-45.0
-43.7
-42.5
-41.2
-40.2
-38.9
-37.4
-35.8
-34.4
-32.8
-31.3
-29.7
-28.0
-25.7
-22.7
-19.0
-15.1
-11.7
-9.2
-8.3
-8.9
-10.3
-12.0
-13.7
-15.0
-16.2
-17.3
-18.4
-19.2
-19.5
-19.5
-19.2
-18.8
-18.5
-18.4
-18.4
-19.2
-21.0
-24.6
-30.0
-37.0
-44.5
-51.5
-57.4
-62.1
-65.2
-67.1
-67.8
-67.8
-67.5
-66.7
-66.0
-65.0
-64.4
-63.9
-63.8
-63.5
-62.9
-62.2
-61.8
-61.5
-61.6
-61.9
-62.2
-62.1
-61.8
-61.3
-60.7
-60.2
-59.9
-59.7
-59.7
-59.6
-59.0
-58.0
-56.9
-55.9
-54.8
-54.0
-53.2
-52.7
-52.3
-51.7
-50.1
-46.4
-39.2
-27.7
-11.7
9.0
34.9
65.5
101.4
142.5
188.2
236.4
283.4
323.7
349.8
355.2
335.2
287.4
211.7
111.8
-3.1
-121.6
-231.4
-323.2
-391.3
-434.7
-454.6
-455.2
-441.2
-417.4
-387.0
-352.3
-315.3
-277.9
-241.9
-208.1
-177.9
-151.8
-129.9
-112.5
-98.9
-88.7
-81.1
-75.6
-72.0
-69.7
-68.0
-66.6
-65.0
-63.3
-61.3
-58.8
-56.2
-53.7
-51.7
-50.4
-49.5
-48.7
-47.9
-47.0
-46.2
-45.3
-44.5
-43.6
-42.6
-41.7
-40.3
-38.6
-36.9
-35.2
-33.9
-33.2
-32.7
-32.5
-32.1
-31.6
-30.8
-29.9
-28.8
-28.2
-27.7
-27.1
-26.5
-25.5
-24.4
-23.5
-22.1
-20.6
-19.0
-17.6
-16.8
-16.0
-15.3
-13.9
-12.3
-10.6
-9.0
-7.5
-5.9
-4.4
-3.1
-1.7
-0.2
1.6
3.8
6.1
8.4
10.6
13.1
16.0
19.2
22.3
25.1
27.4
29.1
30.4
31.3
32.4
34.1
36.1
38.3
40.2
41.6
42.8
43.7
44.7
45.8
46.8
47.8
48.4
48.9
48.9
48.9
48.9
48.7
48.6
48.2
47.5
46.5
45.3
43.7
42.0
40.0
38.0
36.1
34.4
32.7
30.8
28.2
25.2
22.3
19.6
17.1
14.6
12.0
9.5
6.7
3.8
0.3
-3.0
-6.1
-8.7
-11.4
-13.7
-16.2
-18.5
-20.9
-23.4
-25.7
-28.2
-30.7
-33.2
-35.5
-38.0
-40.6
-43.1
-45.4
-47.2
-48.2
-48.9
-49.3
-49.6
-50.3
-50.9
-51.5
-52.0
-52.6
-53.1
-53.5
-53.4
-52.6
-51.8
-50.9
-50.3
-49.8
-49.6
-49.6
-50.1
-50.6
-51.0
-51.8
-52.9
-54.1
-54.8
-54.8
-54.3
-53.5
-53.2
-53.5
-54.6
-56.0
-57.4
-58.2
-58.2
-57.4
-56.0
-54.8
-54.1
-54.1
-54.5
-54.6
-54.6
-54.1
-53.4
-52.6
-52.3
-52.4
-52.9
-53.2
-53.1
-52.4
-51.5
-50.6
-49.8
-49.2
-48.4
-47.5
-46.5
-45.9
-45.4
-45.0
-44.5
-43.7
-43.3
-42.8
-42.2
-41.2
-40.2
-39.1
-38.1
-37.4
-36.7
-36.1
-35.5
-35.0
-34.4
-33.9
-33.5
-33.3
-33.3
-33.5
-33.6
-33.6
-33.6
-33.5
-33.3
-32.8
-32.5
-32.4
-32.5
-32.7
-32.8
-33.0
-33.2
-33.2
-33.2
-33.2
-33.0
-33.0
-33.3
-33.6
-33.9
-33.9
-33.5
-33.0
-32.7
-32.5
-32.5
-32.7
-32.8
-33.0
-33.2
-33.0
-32.8
-32.2
-31.6
-31.1
-30.8
-30.4
-30.2
-30.4
-30.8
-31.8
-32.8
-33.6
-34.1
-34.2
-34.1
-34.1
-34.1
-34.4
-35.2
-35.8
-36.1
-36.1
-35.8
-35.5
-35.3
-35.6
-36.4
-37.2
-37.7
-37.5
-36.9
-36.0
-35.0
-34.6
-34.6
-34.7
-34.6
-33.8
-32.8
-32.1
-31.4
-30.7
-29.9
-29.0
-28.3
-27.9
-27.4
-26.8
-26.2
-25.4
-24.6
-23.5
-22.4
-20.9
-18.8
-16.5
-13.9
-10.8
-7.5
-4.2
-1.4
0.0
0.5
0.0
-1.0
-2.4
-3.6
-4.8
-6.2
-7.6
-8.6
-9.4
-9.7
-9.5
-8.9
-8.1
-7.6
-8.0
-9.2
-12.0
-16.4
-22.1
-29.0
-35.5
-40.9
-45.1
-48.1
-49.8
-50.6
-50.7
-50.6
-50.4
-49.9
-49.5
-49.3
-49.5
-49.9
-50.1
-49.8
-49.2
-48.1
-47.2
-46.5
-46.2
-46.1
-46.2
-46.1
-45.9
-45.4
-45.1
-45.0
-45.1
-45.6
-46.2
-46.7
-46.7
-46.2
-45.3
-44.5
-44.2
-44.5
-45.1
-45.6
-45.4
-44.4
-41.7
-37.0
-29.3
-18.2
-3.0
16.4
40.9
70.8
106.1
146.2
190.2
236.0
279.5
314.2
333.0
330.7
304.7
254.1
179.0
82.6
-26.5
-137.4
-238.9
-323.4
-386.2
-426.0
-443.4
-442.0
-426.8
-402.2
-371.9
-338.0
-301.9
-265.2
-229.4
-195.5
-164.7
-137.8
-114.8
-96.0
-81.1
-69.4
-60.7
-54.1
-49.3
-45.9
-43.6
-42.0
-41.1
-40.5
-39.8
-39.1
-38.1
-37.2
-36.3
-35.2
-33.9
-32.7
-31.1
-29.7
-28.2
-26.8
-25.5
-24.4
-23.5
-22.6
-21.6
-20.6
-19.5
-18.7
-18.2
-18.5
-19.2
-19.8
-20.2
-20.1
-19.3
-18.1
-16.8
-15.9
-15.3
-14.8
-14.3
-13.7
-12.6
-11.2
-10.0
-8.9
-8.1
-7.5
-6.7
-5.3
-3.6
-1.7
0.2
2.4
4.2
5.9
7.3
8.6
10.0
11.7
13.7
16.2
18.7
20.7
22.7
24.8
26.8
28.8
31.0
33.3
35.8
38.4
40.8
42.6
44.4
45.9
47.3
48.6
49.5
50.3
50.3
49.6
48.6
47.6
47.3
47.5
47.9
48.4
48.6
48.6
48.6
48.7
48.9
49.2
49.3
49.3
49.2
48.2
46.5
44.2
41.7
39.2
37.0
34.9
32.7
30.4
27.9
25.4
22.6
19.6
17.0
14.3
11.7
8.9
5.8
2.7
-0.3
-3.4
-6.4
-9.4
-12.0
-14.5
-16.7
-18.8
-21.2
-23.4
-25.7
-27.9
-29.9
-31.8
-33.5
-35.0
-36.9
-38.8
-40.8
-42.5
-43.7
-44.5
-44.7
-45.0
-45.4
-45.9
-46.5
-47.0
-47.5
-47.9
-48.2
-48.2
-47.9
-47.8
-47.6
-47.5
-47.3
-47.2
-46.7
-46.4
-46.2
-46.4
-47.0
-47.9
-49.2
-50.4
-51.8
-53.2
-54.5
-55.7
-56.9
-58.3
-59.7
-61.1
-62.1
-62.5
-62.7
-62.4
-62.1
-61.8
-61.0
-60.2
-59.4
-59.0
-58.8
-58.7
-58.7
-59.1
-59.3
-59.3
-58.8
-58.2
-57.3
-56.3
-55.2
-54.1
-52.9
-51.8
-50.7
-49.6
-48.7
-47.3
-45.8
-44.4
-43.4
-42.8
-42.3
-41.9
-40.9
-39.8
-38.6
-37.5
-36.7
-36.0
-35.2
-34.4
-33.5
-32.7
-31.8
-30.8
-29.9
-29.3
-29.0
-29.3
-29.6
-29.9
-30.0
-30.0
-29.9
-29.7
-29.6
-29.6
-29.4
-29.3
-29.1
-28.8
-28.3
-27.9
-27.7
-28.0
-28.6
-29.7
-30.7
-31.6
-32.7
-33.6
-34.6
-35.3
-35.6
-35.8
-36.0
-36.1
-36.6
-36.9
-37.2
-37.7
-38.1
-38.6
-38.9
-38.9
-38.3
-37.7
-37.2
-37.0
-37.0
-37.2
-37.7
-37.8
-38.0
-37.7
-37.2
-36.6
-35.8
-35.2
-34.6
-34.1
-33.9
-33.8
-34.1
-34.6
-35.2
-36.0
-36.7
-37.5
-38.3
-38.8
-38.9
-39.1
-38.9
-38.9
-38.8
-38.8
-38.8
-38.4
-38.0
-36.9
-35.3
-33.6
-32.1
-30.8
-29.9
-28.6
-26.8
-24.4
-21.6
-18.5
-15.4
-11.8
-8.0
-4.2
-1.1
0.8
1.9
2.0
1.3
-0.2
-2.0
-4.4
-6.7
-8.7
-10.0
-10.6
-10.8
-10.4
-10.1
-10.1
-10.1
-10.3
-10.6
-11.4
-13.4
-17.1
-22.4
-28.5
-34.2
-39.4
-43.3
-46.1
-48.2
-49.8
-51.0
-52.1
-52.9
-53.2
-53.1
-52.6
-52.1
-51.7
-51.0
-50.4
-49.9
-49.8
-49.8
-49.6
-49.6
-49.6
-49.9
-50.7
-51.7
-52.4
-52.9
-53.2
-53.4
-53.2
-53.1
-52.6
-52.0
-51.3
-50.7
-50.1
-49.5
-49.0
-48.7
-48.6
-48.4
-47.5
-44.8
-39.1
-29.1
-14.6
4.1
27.1
54.5
86.7
123.7
165.0
209.5
253.5
291.9
317.8
324.6
308.4
267.2
200.6
111.4
7.0
-101.7
-204.2
-291.8
-358.8
-403.6
-426.5
-430.4
-419.5
-398.0
-369.7
-336.7
-301.4
-265.3
-230.5
-198.2
-168.9
-143.1
-121.0
-102.7
-87.9
-76.5
-68.1
-62.4
-58.8
-56.6
-55.2
-53.8
-52.4
-50.9
-49.3
-48.1
-47.0
-46.1
-45.1
-44.2
-43.3
-42.3
-41.6
-40.9
-40.2
-39.2
-37.8
-36.4
-34.9
-33.3
-31.9
-30.7
-29.6
-28.8
-28.0
-27.2
-26.5
-25.4
-24.0
-22.4
-21.2
-20.6
-20.2
-19.8
-19.0
-17.8
-16.2
-14.6
-13.2
-12.2
-11.1
-10.1
-9.2
-8.1
-7.2
-5.9
-4.7
-3.4
-2.5
-1.7
-1.0
0.0
1.1
2.5
4.2
5.9
7.6
9.0
10.4
12.0
13.7
15.9
18.2
20.4
22.1
23.7
25.2
26.9
28.6
30.8
33.0
35.3
37.4
39.1
40.5
41.7
43.3
44.7
46.1
47.2
47.9
48.1
47.8
47.2
46.2
45.3
44.5
43.7
42.8
41.6
40.2
38.9
38.0
37.2
36.3
35.3
34.4
33.3
31.4
29.0
26.2
23.2
20.4
17.8
15.3
12.8
10.3
7.3
4.2
1.1
-1.7
-4.7
-7.6
-10.8
-13.7
-16.7
-19.3
-22.0
-24.8
-27.7
-30.5
-33.3
-36.0
-38.4
-40.8
-43.1
-45.6
-47.9
-49.8
-51.3
-52.6
-53.8
-55.2
-56.8
-58.0
-59.1
-59.9
-60.7
-61.3
-61.6
-61.8
-61.8
-61.8
-62.4
-63.5
-64.7
-65.7
-66.4
-67.1
-67.7
-68.5
-69.2
-69.7
-70.0
-69.9
-69.5
-69.2
-69.2
-69.7
-70.6
-71.6
-72.2
-72.2
-71.4
-70.2
-69.1
-68.6
-68.9
-69.4
-69.9
-70.0
-69.7
-69.2
-68.6
-68.1
-67.8
-68.0
-68.3
-68.3
-67.8
-66.7
-65.5
-64.6
-64.4
-64.9
-65.7
-66.4
-66.7
-66.4
-65.3
-63.9
-62.2
-60.8
-59.7
-59.3
-59.0
-58.3
-57.1
-55.7
-54.5
-53.5
-52.9
-52.3
-51.8
-51.3
-50.7
-49.9
-48.9
-47.6
-46.5
-45.8
-45.1
-44.5
-43.6
-42.5
-41.4
-40.5
-39.5
-38.8
-38.0
-37.5
-37.0
-36.7
-36.6
-36.9
-37.4
-38.0
-38.6
-39.1
-39.1
-38.8
-38.1
-37.5
-37.0
-36.7
-36.7
-36.9
-36.9
-36.7
-36.1
-35.3
-34.2
-33.0
-32.2
-32.2
-33.0
-34.1
-35.2
-36.1
-37.0
-37.8
-38.3
-38.6
-38.6
-38.4
-38.3
-37.8
-37.2
-36.6
-36.1
-36.0
-36.4
-37.4
-38.4
-39.5
-40.2
-40.5
-40.6
-40.6
-40.8
-40.9
-41.2
-41.6
-42.0
-42.6
-43.0
-43.3
-43.4
-43.9
-44.2
-44.4
-44.2
-43.7
-43.1
-42.3
-41.4
-40.5
-40.0
-40.0
-39.8
-39.4
-38.8
-38.1
-37.5
-36.9
-36.4
-36.0
-35.5
-34.1
-31.9
-28.8
-25.4
-22.1
-19.0
-15.9
-13.1
-10.6
-8.6
-7.2
-6.4
-6.2
-7.0
-8.3
-10.0
-11.7
-13.2
-14.5
-15.6
-16.2
-16.4
-16.2
-16.4
-16.7
-17.1
-17.3
-17.8
-19.0
-21.3
-25.4
-31.1
-37.5
-43.4
-48.1
-51.2
-53.1
-54.0
-54.1
-54.1
-54.1
-54.5
-55.1
-55.7
-56.3
-56.8
-57.1
-57.6
-58.2
-59.1
-60.2
-61.0
-61.6
-61.6
-61.1
-60.5
-60.1
-60.1
-60.5
-61.1
-61.9
-62.2
-62.1
-61.5
-60.5
-59.6
-58.8
-58.3
-57.7
-57.1
-56.3
-55.5
-55.1
-54.5
-52.9
-49.6
-43.4
-33.0
-18.1
1.6
26.2
55.4
89.8
129.3
173.7
221.5
269.2
311.8
342.0
352.0
336.7
293.7
222.7
127.1
14.8
-102.2
-212.2
-305.2
-375.6
-421.5
-444.2
-447.2
-434.6
-411.1
-380.1
-344.8
-307.5
-270.3
-234.9
-202.4
-173.3
-147.8
-126.2
-108.3
-93.7
-82.0
-73.1
-66.7
-62.4
-59.6
-57.4
-55.5
-53.8
-52.3
-51.2
-50.6
-50.3
-49.9
-49.8
-49.3
-48.6
-47.3
-46.1
-44.7
-43.4
-42.0
-40.6
-38.9
-37.2
-35.6
-34.1
-33.0
-32.2
-31.6
-31.1
-30.5
-29.9
-29.4
-29.0
-28.8
-28.6
-28.2
-27.6
-26.8
-25.7
-24.8
-23.7
-22.7
-21.8
-21.0
-20.2
-19.5
-18.5
-17.1
-15.7
-14.2
-12.3
-10.6
-8.9
-7.5
-6.4
-5.3
-4.1
-2.5
-0.8
1.0
2.8
4.7
6.9
9.2
12.0
14.8
17.4
19.6
21.6
23.4
24.9
26.2
27.6
28.8
30.4
31.8
33.2
34.4
35.6
37.0
38.6
40.2
41.9
43.4
44.5
45.1
45.3
45.6
46.1
46.7
47.3
47.5
47.3
46.8
46.2
45.4
44.5
43.7
43.0
42.0
41.2
40.0
38.6
36.9
35.2
33.3
31.4
29.7
28.0
26.2
23.7
20.7
17.3
13.9
10.6
7.8
5.3
3.1
0.8
-1.9
-5.2
-9.2
-13.4
-17.9
-22.1
-25.8
-28.6
-31.0
-33.3
-35.5
-37.7
-39.8
-41.4
-42.3
-42.8
-43.0
-43.1
-43.3
-43.7
-44.4
-45.0
-45.6
-46.1
-46.7
-47.5
-48.9
-50.4
-51.8
-52.7
-52.9
-52.6
-52.0
-51.5
-51.2
-51.2
-51.7
-52.6
-53.5
-54.5
-54.9
-54.8
-54.5
-54.1
-54.3
-54.8
-55.1
-55.1
-54.5
-53.8
-53.4
-53.1
-52.7
-52.7
-52.7
-52.9
-52.7
-52.7
-52.7
-53.2
-53.8
-54.8
-55.4
-55.5
-55.2
-54.3
-53.4
-52.3
-51.7
-51.2
-50.9
-50.4
-49.8
-48.9
-47.9
-46.8
-45.9
-45.4
-45.1
-45.0
-44.7
-44.2
-43.9
-43.6
-43.1
-42.5
-42.2
-42.0
-42.2
-42.3
-42.2
-41.6
-40.8
-39.7
-38.9
-38.8
-38.6
-38.6
-38.3
-37.8
-37.2
-36.4
-36.0
-35.6
-35.5
-34.9
-33.9
-33.0
-32.4
-31.8
-31.4
-31.6
-32.1
-32.8
-33.8
-34.4
-34.2
-33.6
-33.2
-33.3
-34.1
-35.2
-36.4
-37.4
-37.8
-37.7
-37.2
-36.6
-36.3
-36.1
-36.4
-36.9
-37.4
-37.8
-38.3
-38.6
-39.1
-39.4
-40.0
-40.2
-40.0
-39.4
-39.1
-38.9
-39.1
-39.7
-40.5
-41.2
-41.6
-41.6
-41.2
-40.6
-40.0
-39.7
-39.7
-39.7
-39.8
-39.8
-39.7
-39.5
-39.5
-39.7
-40.2
-40.8
-41.4
-41.9
-41.9
-41.4
-40.6
-39.5
-38.4
-37.7
-37.2
-37.2
-37.4
-37.4
-37.4
-36.9
-36.1
-35.3
-34.2
-33.2
-31.9
-30.2
-28.6
-27.1
-25.2
-22.7
-19.8
-16.5
-13.2
-10.0
-6.7
-3.6
-1.0
0.6
1.1
0.2
-1.3
-3.0
-4.4
-5.5
-6.4
-7.3
-8.3
-8.9
-9.4
-9.7
-9.8
-9.7
-9.5
-9.5
-10.0
-11.5
-14.6
-19.5
-25.7
-32.8
-39.7
-45.6
-50.1
-53.2
-55.1
-56.0
-56.3
-56.5
-56.2
-55.5
-54.8
-54.1
-53.7
-53.5
-53.4
-53.2
-53.2
-53.5
-53.7
-53.7
-53.5
-53.7
-53.8
-54.5
-54.9
-55.1
-54.8
-54.1
-53.7
-53.5
-53.7
-54.0
-54.3
-54.3
-54.3
-53.8
-53.2
-52.4
-51.8
-51.3
-51.2
-50.6
-48.2
-43.4
-34.9
-21.8
-3.9
18.5
45.8
77.9
115.6
158.8
206.4
255.5
301.7
338.1
357.1
352.9
322.3
263.9
178.7
72.2
-45.1
-161.5
-265.3
-349.2
-409.0
-444.2
-456.9
-451.5
-432.8
-405.3
-372.3
-336.1
-298.5
-261.3
-225.5
-192.4
-162.4
-136.3
-114.2
-96.6
-83.1
-73.1
-65.8
-60.1
-55.7
-52.4
-50.1
-48.6
-47.5
-46.7
-46.1
-45.6
-45.1
-44.4
-43.4
-42.2
-40.9
-39.5
-38.0
-36.1
-34.4
-32.7
-31.1
-29.9
-28.6
-27.7
-26.9
-26.3
-25.8
-24.9
-23.8
-22.4
-21.2
-20.2
-19.6
-18.8
-17.9
-16.7
-15.3
-13.7
-12.5
-11.5
-10.8
-10.0
-8.9
-8.0
-6.9
-5.8
-4.2
-2.8
-1.4
-0.3
0.5
1.3
2.5
3.9
5.3
6.6
7.5
8.6
9.7
11.1
12.8
14.6
16.4
17.9
19.3
20.9
22.6
24.4
26.3
28.3
30.7
33.5
36.4
39.1
41.4
43.3
44.8
46.5
47.8
48.9
49.2
49.2
48.9
48.4
48.1
47.9
47.8
47.6
47.8
47.9
48.1
47.9
47.2
46.1
45.1
44.5
44.0
43.6
42.8
41.7
40.5
38.8
36.4
33.9
31.4
29.3
27.6
26.0
24.0
21.5
18.4
15.0
11.7
8.9
6.4
3.9
1.3
-1.7
-5.0
-8.6
-12.0
-15.3
-18.1
-20.4
-23.0
-25.8
-29.0
-31.9
-34.6
-36.9
-38.8
-40.3
-41.7
-43.3
-44.8
-46.7
-48.6
-50.1
-51.5
-52.6
-53.2
-53.8
-54.6
-55.9
-57.3
-58.7
-59.4
-59.6
-59.3
-59.0
-58.8
-59.0
-59.4
-60.2
-61.1
-61.8
-62.2
-62.5
-63.0
-63.9
-64.9
-65.7
-66.0
-65.8
-65.2
-64.6
-64.3
-64.3
-64.4
-64.4
-64.3
-63.8
-63.2
-62.5
-62.2
-62.1
-62.2
-62.4
-62.5
-62.5
-62.1
-61.3
-60.1
-59.0
-58.5
-58.7
-59.0
-59.6
-59.7
-59.4
-59.1
-58.7
-58.2
-57.9
-57.6
-57.3
-56.8
-56.0
-55.1
-54.0
-52.7
-51.7
-51.0
-50.9
-50.9
-50.9
-50.6
-49.9
-48.9
-47.8
-47.0
-46.8
-46.7
-46.1
-45.1
-44.0
-43.4
-43.0
-43.1
-43.3
-43.4
-43.4
-43.4
-43.4
-43.3
-43.3
-43.1
-42.6
-42.3
-42.3
-42.5
-42.8
-42.6
-42.3
-41.9
-41.9
-42.2
-42.8
-43.1
-43.1
-42.6
-42.2
-42.0
-42.3
-43.0
-43.9
-44.8
-45.4
-45.6
-45.6
-45.3
-45.0
-44.4
-43.4
-42.6
-42.2
-42.2
-42.5
-42.6
-43.0
-43.4
-44.2
-45.3
-46.4
-47.2
-47.9
-48.4
-48.6
-48.2
-47.6
-47.0
-46.7
-46.4
-46.1
-45.6
-45.1
-44.8
-45.0
-45.3
-45.4
-45.6
-45.6
-45.3
-45.0
-44.4
-43.9
-43.3
-42.8
-42.2
-41.6
-40.8
-40.0
-38.9
-37.5
-36.0
-34.4
-32.8
-31.1
-29.3
-26.8
-24.1
-21.5
-19.0
-16.7
-14.6
-13.1
-11.8
-11.1
-10.8
-10.6
-10.8
-10.9
-11.5
-12.6
-14.0
-15.1
-15.6
-15.7
-15.4
-15.1
-15.0
-15.0
-15.6
-16.8
-19.2
-22.7
-27.6
-33.5
-39.7
-45.3
-49.8
-52.7
-54.5
-55.5
-56.3
-56.9
-57.3
-57.3
-57.3
-57.1
-56.5
-55.5
-54.6
-53.8
-53.2
-52.9
-53.1
-53.5
-54.1
-54.6
-55.1
-55.4
-55.5
-55.4
-55.1
-54.8
-54.6
-54.6
-54.6
-54.6
-54.9
-55.1
-55.4
-55.5
-55.5
-55.5
-55.9
-56.2
-56.5
-56.0
-54.5
-51.0
-44.7
-34.9
-21.2
-3.4
18.7
45.8
77.9
115.6
157.9
203.3
247.9
286.5
312.2
318.7
302.8
263.2
199.1
112.6
10.0
-98.3
-201.7
-291.2
-361.1
-409.4
-435.3
-441.6
-432.2
-412.0
-384.8
-352.7
-317.8
-280.9
-244.0
-208.7
-176.2
-147.5
-123.0
-103.0
-87.0
-74.8
-65.5
-58.7
-53.7
-49.8
-47.0
-44.8
-43.1
-41.6
-39.7
-37.8
-36.1
-34.9
-34.2
-33.9
-33.5
-32.7
-31.6
-30.4
-29.4
-28.6
-28.2
-27.9
-27.7
-27.4
-26.8
-26.0
-25.1
-24.1
-23.2
-22.6
-22.3
-21.8
-21.2
-20.6
-20.1
-19.6
-19.5
-19.0
-18.2
-17.1
-15.9
-14.3
-12.9
-11.4
-9.8
-8.6
-7.5
-6.7
-6.1
-4.8
-3.1
-0.6
1.9
4.2
5.9
7.2
8.3
9.4
10.8
12.5
14.3
16.4
18.4
20.2
22.1
24.0
25.7
27.7
29.7
31.9
33.9
36.0
37.7
39.2
40.3
41.2
42.2
43.3
44.4
45.3
45.9
46.4
47.0
47.9
48.7
49.5
50.3
50.9
51.0
50.9
50.3
49.5
48.9
48.2
47.6
46.7
45.3
43.6
41.7
39.7
37.8
36.3
34.9
33.5
31.9
29.7
26.9
23.8
20.9
18.4
16.2
14.0
11.7
8.9
5.6
2.0
-1.4
-4.5
-7.5
-10.1
-12.5
-14.6
-16.7
-18.5
-20.2
-21.8
-23.4
-24.9
-26.5
-27.9
-29.3
-31.0
-33.0
-35.0
-36.9
-38.6
-40.0
-41.2
-42.3
-43.6
-45.1
-47.0
-48.4
-49.3
-49.8
-49.9
-49.9
-49.8
-49.9
-50.6
-51.5
-52.3
-52.7
-52.9
-53.2
-53.5
-54.1
-54.8
-55.4
-56.0
-56.5
-56.6
-56.6
-56.5
-56.5
-56.6
-57.3
-57.9
-58.5
-59.0
-59.3
-59.9
-60.7
-61.6
-62.7
-63.6
-64.4
-64.7
-64.7
-64.4
-63.9
-63.8
-63.9
-64.3
-64.6
-64.6
-63.9
-63.2
-62.1
-61.3
-60.4
-59.3
-58.0
-56.5
-55.1
-53.8
-52.9
-52.3
-51.7
-51.2
-50.7
-49.9
-49.0
-47.9
-47.0
-46.1
-45.4
-44.8
-44.5
-44.2
-43.9
-43.4
-43.0
-42.5
-42.3
-42.0
-41.9
-41.6
-41.4
-41.1
-40.9
-40.8
-40.8
-40.8
-40.9
-41.1
-41.2
-41.4
-41.2
-40.9
-40.2
-39.2
-38.4
-38.3
-38.4
-39.2
-39.8
-40.3
-40.5
-40.3
-40.3
-40.8
-41.6
-42.5
-43.3
-43.7
-43.9
-43.7
-43.7
-43.9
-44.2
-44.4
-44.5
-44.4
-44.0
-43.6
-43.3
-43.0
-42.8
-42.6
-42.5
-42.8
-43.0
-43.1
-43.0
-42.6
-42.6
-42.8
-43.0
-42.8
-42.6
-42.5
-42.8
-43.1
-43.3
-43.3
-43.4
-43.4
-43.6
-43.4
-42.8
-42.0
-40.9
-40.2
-40.0
-40.6
-41.7
-43.1
-44.0
-44.4
-43.9
-43.0
-42.0
-41.4
-41.1
-40.8
-40.5
-40.0
-39.4
-38.4
-36.9
-35.0
-33.0
-30.7
-28.0
-24.9
-21.2
-17.6
-14.8
-13.1
-12.6
-13.4
-14.8
-16.4
-17.8
-18.7
-19.6
-20.4
-21.3
-22.4
-23.4
-24.0
-23.8
-23.2
-22.1
-21.3
-21.2
-22.1
-24.4
-28.5
-33.9
-40.2
-46.4
-51.7
-55.9
-59.0
-61.1
-62.5
-63.2
-63.0
-62.7
-62.1
-61.6
-61.3
-61.3
-61.5
-61.6
-61.6
-61.5
-61.1
-60.8
-60.4
-60.4
-60.7
-61.6
-62.5
-63.3
-63.3
-62.9
-61.5
-59.7
-58.0
-56.6
-55.9
-55.4
-54.9
-54.3
-53.8
-53.5
-53.4
-53.5
-54.0
-54.3
-53.7
-51.2
-45.9
-36.9
-23.7
-5.9
16.0
43.0
74.4
110.8
151.8
197.1
243.7
287.7
323.0
342.8
340.8
313.9
259.9
179.3
77.3
-36.4
-149.6
-251.0
-332.8
-391.0
-425.1
-437.7
-433.0
-415.4
-389.1
-357.3
-322.4
-286.5
-251.3
-217.9
-187.0
-159.0
-134.2
-113.1
-95.8
-82.5
-72.8
-66.1
-62.1
-59.6
-58.0
-57.1
-56.8
-56.5
-56.2
-55.5
-54.3
-52.6
-50.4
-48.2
-46.2
-44.7
-43.6
-42.5
-41.4
-40.3
-39.4
-38.9
-38.6
-38.3
-37.8
-37.2
-36.6
-36.0
-35.3
-34.6
-34.1
-33.9
-33.9
-33.6
-32.8
-31.4
-29.7
-28.0
-26.3
-24.9
-23.8
-23.2
-23.0
-22.9
-22.6
-22.0
-20.9
-19.5
-18.1
-16.8
-15.7
-14.3
-12.9
-11.1
-9.2
-7.0
-5.0
-3.1
-1.6
0.0
1.9
3.9
6.1
8.6
11.2
13.6
15.6
17.4
19.0
20.9
23.0
25.4
27.7
29.6
31.0
32.1
33.3
34.9
36.7
38.4
39.7
40.6
41.2
42.0
42.8
43.7
44.5
45.4
46.2
46.7
46.7
46.4
45.6
44.5
43.6
42.8
42.2
42.0
42.0
41.9
41.6
40.8
39.7
38.1
36.4
34.6
32.7
30.5
27.7
24.4
20.9
17.4
14.2
11.1
8.1
5.0
1.9
-1.4
-4.7
-7.8
-10.9
-13.9
-16.8
-19.5
-21.8
-24.0
-26.3
-28.8
-31.1
-33.3
-35.3
-37.0
-38.6
-39.8
-41.1
-41.9
-42.3
-42.6
-43.1
-43.9
-44.8
-45.9
-47.3
-48.7
-50.4
-52.3
-54.0
-55.2
-56.2
-56.6
-56.8
-56.6
-56.3
-56.2
-56.0
-55.9
-55.7
-55.4
-54.8
-54.1
-54.0
-54.3
-54.9
-55.9
-56.8
-57.6
-58.5
-59.4
-60.4
-61.0
-61.3
-61.5
-61.5
-61.6
-61.8
-61.8
-61.8
-61.8
-61.6
-61.5
-61.1
-60.8
-60.4
-59.9
-59.6
-59.6
-59.6
-59.3
-58.8
-57.9
-56.8
-55.5
-54.5
-53.8
-53.7
-54.0
-54.3
-54.5
-54.5
-54.1
-53.5
-52.9
-52.4
-52.1
-51.8
-51.8
-51.7
-51.0
-49.9
-48.2
-46.7
-45.1
-43.9
-43.1
-42.5
-42.2
-42.2
-42.0
-41.9
-41.9
-41.7
-41.1
-40.3
-39.2
-38.0
-36.9
-36.3
-36.1
-36.1
-36.4
-36.6
-36.6
-36.1
-35.3
-34.6
-33.9
-33.8
-34.1
-34.9
-35.3
-35.6
-35.5
-35.2
-35.0
-35.0
-35.3
-36.0
-36.7
-37.4
-37.7
-38.0
-38.1
-38.1
-38.1
-38.1
-38.3
-38.4
-38.6
-38.8
-38.9
-39.4
-40.0
-40.8
-41.6
-42.3
-42.8
-43.1
-43.6
-43.7
-43.7
-43.6
-43.6
-43.6
-43.6
-43.6
-43.3
-42.6
-42.2
-42.0
-42.5
-43.4
-44.5
-45.4
-46.1
-46.2
-46.4
-46.4
-46.4
-46.4
-46.5
-46.7
-46.7
-46.4
-45.8
-45.1
-44.5
-44.0
-43.3
-42.5
-42.0
-42.0
-42.0
-41.7
-41.1
-40.3
-39.2
-37.8
-36.3
-34.6
-32.8
-31.3
-29.6
-28.0
-26.2
-24.0
-21.2
-17.6
-13.6
-9.4
-5.5
-2.8
-1.9
-2.4
-3.8
-5.3
-6.9
-8.3
-9.5
-10.8
-12.0
-13.6
-15.3
-16.7
-17.4
-17.4
-16.8
-16.0
-15.6
-16.0
-17.9
-21.6
-27.2
-33.9
-40.5
-46.1
-49.9
-52.4
-54.0
-54.9
-55.5
-55.9
-55.7
-55.4
-54.9
-54.6
-54.5
-54.6
-54.9
-55.4
-55.7
-55.9
-55.9
-55.9
-56.2
-56.6
-56.9
-56.8
-56.3
-55.4
-54.6
-53.8
-53.2
-52.6
-52.4
-52.3
-52.4
-52.6
-52.7
-52.6
-52.0
-51.2
-50.4
-49.8
-49.0
-47.5
-44.0
-37.5
-27.1
-12.0
7.5
32.1
61.8
96.6
136.7
181.8
230.7
280.3
325.5
359.4
373.9
363.3
324.8
257.6
163.9
51.3
-68.8
-184.0
-283.7
-361.1
-413.9
-442.0
-449.2
-439.8
-418.5
-389.3
-355.1
-318.1
-280.4
-243.7
-209.0
-177.2
-148.7
-124.0
-103.8
-87.9
-76.1
-67.7
-62.1
-58.3
-56.0
-54.6
-53.5
-52.4
-51.3
-50.3
-49.2
-48.1
-46.7
-45.4
-44.5
-44.0
-43.7
-43.6
-43.0
-41.9
-40.5
-38.9
-37.4
-35.8
-34.6
-33.3
-32.1
-31.0
-30.0
-29.4
-28.8
-28.2
-27.7
-27.2
-26.9
-26.2
-25.2
-24.0
-22.7
-21.5
-20.4
-19.5
-18.4
-17.0
-15.6
-13.9
-12.3
-10.6
-9.0
-8.0
-7.2
-6.9
-6.1
-4.5
-2.4
0.0
2.2
4.1
5.6
7.2
8.7
10.4
11.8
13.1
14.3
15.7
17.3
18.7
19.8
20.7
22.1
23.7
25.7
27.9
30.2
32.2
34.2
36.4
38.8
41.2
43.7
45.8
47.5
48.6
49.3
49.6
49.8
50.1
50.6
50.9
51.0
50.6
49.9
49.2
48.1
47.0
46.1
45.3
44.5
43.6
42.3
40.6
38.8
36.7
34.7
33.0
31.4
30.0
28.3
26.2
23.7
21.0
18.5
16.0
13.6
10.8
8.1
5.3
2.4
-0.6
-3.9
-7.0
-10.0
-13.1
-16.2
-19.3
-22.3
-24.9
-27.4
-29.6
-31.6
-33.2
-34.4
-35.5
-36.6
-37.8
-38.8
-39.4
-40.0
-40.6
-41.4
-42.0
-42.8
-43.7
-45.1
-46.7
-47.9
-49.2
-50.4
-51.7
-52.6
-53.2
-53.5
-53.8
-54.3
-54.6
-54.8
-55.1
-55.4
-56.0
-56.5
-57.3
-58.3
-59.3
-60.1
-60.7
-61.3
-61.9
-63.0
-64.1
-65.0
-65.7
-65.8
-65.7
-65.2
-64.9
-64.6
-64.4
-64.7
-65.0
-65.2
-65.0
-64.7
-64.4
-64.3
-63.9
-63.6
-63.5
-63.6
-63.8
-63.8
-63.8
-63.3
-62.7
-62.1
-61.5
-60.8
-60.2
-59.3
-58.3
-57.1
-56.0
-55.1
-54.3
-53.7
-52.9
-52.0
-51.0
-50.1
-49.2
-48.6
-48.2
-48.1
-48.1
-47.9
-47.8
-47.3
-47.0
-46.8
-47.0
-47.2
-47.5
-47.8
-47.8
-47.5
-47.0
-46.4
-45.9
-45.1
-44.4
-43.3
-42.3
-41.9
-41.7
-42.0
-42.3
-42.3
-42.3
-42.2
-42.0
-41.6
-41.2
-41.1
-41.2
-41.4
-41.7
-42.5
-43.6
-44.4
-44.7
-44.7
-44.4
-44.2
-44.0
-44.2
-44.7
-45.4
-45.9
-45.9
-45.3
-44.4
-43.9
-43.9
-44.5
-45.6
-46.4
-46.8
-47.0
-46.5
-45.8
-45.0
-44.7
-45.0
-45.6
-46.1
-46.5
-46.7
-47.0
-47.3
-47.9
-48.9
-49.9
-50.9
-51.3
-51.7
-51.7
-51.5
-51.2
-51.0
-51.0
-50.9
-50.4
-50.1
-49.8
-49.3
-48.6
-47.8
-47.3
-46.8
-46.7
-46.4
-45.9
-45.1
-43.6
-41.4
-39.1
-36.6
-33.9
-31.0
-27.6
-23.7
-19.8
-16.5
-15.0
-15.0
-16.5
-18.7
-20.7
-22.4
-23.5
-24.0
-24.1
-24.1
-24.1
-23.7
-22.9
-21.6
-20.2
-18.7
-17.9
-18.4
-20.2
-24.1
-29.7
-36.4
-43.4
-49.9
-55.2
-59.1
-61.3
-62.5
-62.7
-62.5
-61.8
-60.7
-59.6
-58.7
-58.0
-57.6
-57.3
-56.9
-56.8
-56.9
-57.1
-57.1
-56.9
-56.6
-56.6
-56.8
-57.3
-58.0
-59.0
-59.7
-60.2
-60.2
-60.1
-59.6
-59.4
-59.1
-58.8
-58.3
-58.2
-57.9
-57.9
-57.7
-57.3
-56.6
-55.1
-52.0
-46.5
-37.8
-25.4
-8.9
11.7
36.7
66.7
102.2
143.1
188.1
234.6
277.8
310.4
325.2
317.9
286.7
230.5
150.3
50.4
-59.3
-168.1
-266.0
-345.6
-403.4
-438.4
-452.0
-447.6
-430.2
-404.5
-373.6
-339.5
-303.4
-266.7
-230.8
-196.8
-165.7
-138.8
-116.5
-98.9
-85.6
-75.3
-67.4
-61.3
-56.8
-53.5
-51.2
-49.5
-48.1
-47.0
-45.9
-44.8
-43.6
-42.6
-42.0
-41.7
-41.6
-41.4
-40.8
-39.7
-38.8
-37.8
-37.2
-36.4
-35.8
-35.0
-34.4
-33.6
-32.7
-31.4
-30.0
-28.8
-27.9
-27.1
-26.6
-25.8
-24.9
-23.5
-21.8
-19.9
-18.4
-17.3
-16.7
-16.4
-16.2
-16.0
-15.6
-15.0
-14.3
-13.9
-13.1
-12.2
-10.6
-8.6
-6.2
-3.8
-1.3
0.8
2.5
4.1
5.5
7.0
8.7
10.8
12.6
14.5
16.2
17.9
19.6
21.5
23.4
25.4
27.6
29.9
32.1
34.1
35.6
37.0
38.3
39.7
41.2
42.6
43.4
43.4
43.0
42.3
42.0
41.9
41.9
41.7
41.6
41.1
40.3
39.2
37.5
35.8
34.1
32.7
31.9
31.3
30.7
30.2
29.6
28.8
27.9
26.9
26.0
24.8
22.9
20.4
17.6
14.8
12.0
9.2
6.2
3.3
0.6
-1.7
-4.1
-6.7
-9.2
-11.5
-13.9
-16.0
-18.4
-20.6
-22.9
-25.1
-27.4
-29.6
-31.4
-32.7
-33.3
-33.8
-34.6
-35.6
-36.9
-37.8
-38.3
-38.6
-39.2
-40.3
-41.7
-43.4
-45.3
-47.0
-48.6
-49.3
-49.6
-49.5
-49.5
-49.6
-50.6
-51.8
-53.1
-54.0
-54.6
-55.4
-56.0
-56.8
-57.3
-57.6
-57.7
-57.9
-57.7
-57.7
-57.7
-57.9
-58.2
-58.8
-59.4
-60.4
-61.0
-61.5
-61.6
-61.5
-61.6
-62.2
-63.3
-64.1
-64.3
-64.1
-63.6
-63.2
-62.7
-62.4
-61.9
-61.3
-60.7
-59.6
-58.2
-56.5
-55.1
-53.8
-53.1
-52.3
-51.7
-50.9
-50.1
-49.2
-48.6
-47.8
-47.0
-46.2
-45.4
-44.5
-43.6
-42.3
-41.2
-40.3
-39.8
-39.8
-40.5
-41.1
-41.6
-41.6
-41.2
-40.8
-40.2
-39.4
-38.6
-37.8
-37.2
-36.3
-35.0
-33.6
-32.2
-31.3
-30.8
-30.7
-30.7
-31.0
-31.4
-31.9
-32.4
-32.7
-33.3
-34.1
-35.2
-36.1
-36.6
-36.7
-36.4
-35.8
-35.2
-34.7
-34.4
-34.6
-34.7
-35.0
-35.6
-36.0
-36.4
-36.9
-37.4
-37.4
-37.0
-36.4
-35.6
-35.0
-34.6
-34.9
-35.5
-36.6
-37.4
-38.0
-38.0
-37.7
-37.0
-36.4
-36.1
-35.8
-35.5
-35.2
-34.9
-34.6
-34.4
-34.2
-34.1
-34.4
-35.3
-36.3
-36.7
-36.4
-35.5
-34.6
-33.6
-33.0
-33.0
-33.3
-33.6
-33.5
-32.5
-31.3
-29.7
-28.2
-26.8
-25.8
-24.9
-23.7
-22.0
-19.8
-17.4
-14.8
-11.8
-8.9
-5.6
-2.7
-0.2
1.1
1.4
0.8
-0.2
-1.6
-3.1
-4.7
-6.2
-7.5
-8.9
-10.1
-11.1
-11.8
-12.0
-11.7
-11.2
-10.8
-10.8
-11.8
-14.5
-18.8
-24.4
-30.4
-36.1
-41.1
-44.8
-47.6
-49.3
-50.1
-50.3
-49.9
-49.6
-49.5
-49.2
-49.2
-49.3
-49.5
-49.3
-49.0
-48.7
-48.7
-49.2
-49.5
-49.5
-49.2
-49.0
-49.2
-50.1
-51.2
-52.7
-54.3
-55.5
-56.0
-55.7
-54.5
-52.9
-51.5
-50.6
-49.9
-49.6
-49.5
-49.3
-48.7
-48.1
-46.5
-43.4
-36.9
-26.5
-11.4
8.0
32.2
61.5
95.7
134.9
178.3
223.7
267.5
304.2
326.6
328.8
307.3
260.2
187.3
92.1
-16.5
-127.4
-229.4
-314.0
-376.7
-416.5
-434.9
-435.0
-421.6
-398.8
-369.5
-335.8
-300.0
-263.8
-229.1
-197.1
-168.1
-142.6
-120.7
-102.7
-88.2
-77.5
-69.7
-64.4
-61.1
-59.0
-57.6
-56.2
-54.6
-53.1
-51.5
-50.6
-49.9
-49.5
-48.7
-47.6
-46.2
-44.5
-43.0
-41.4
-40.2
-39.1
-38.3
-37.7
-37.0
-36.6
-36.3
-36.0
-35.8
-35.6
-35.3
-35.2
-34.7
-33.9
-32.7
-31.0
-29.4
-28.0
-27.1
-25.8
-24.6
-23.0
-21.6
-20.2
-19.0
-18.2
-17.8
-17.0
-16.0
-14.6
-12.9
-11.1
-9.2
-7.5
-5.9
-4.2
-2.5
-0.5
1.6
3.8
5.9
8.1
9.8
11.4
12.9
15.1
17.4
19.6
21.3
22.6
23.8
25.1
26.3
27.7
29.3
31.1
33.2
35.2
36.9
38.4
39.8
41.1
42.2
43.3
44.4
45.1
45.8
46.1
45.9
45.8
45.4
45.0
44.4
43.9
43.4
42.8
42.0
40.9
39.7
38.4
37.4
36.3
35.3
34.2
33.0
31.1
28.6
25.8
22.9
20.1
17.3
14.5
11.5
8.4
5.3
2.2
-0.3
-2.7
-4.5
-6.4
-8.3
-10.4
-13.1
-16.0
-19.2
-22.3
-25.1
-27.2
-28.6
-29.6
-30.5
-31.4
-32.8
-34.4
-35.8
-37.2
-38.8
-40.2
-41.6
-43.3
-45.3
-47.3
-48.9
-50.1
-51.0
-51.8
-52.4
-53.2
-54.3
-55.4
-56.6
-57.6
-58.5
-59.0
-59.1
-59.1
-59.3
-59.9
-60.7
-61.3
-61.6
-61.8
-61.5
-61.1
-61.0
-61.0
-61.6
-62.9
-64.3
-65.5
-66.1
-66.6
-67.1
-67.5
-68.5
-69.5
-70.6
-71.3
-71.6
-71.6
-71.1
-70.6
-70.3
-70.0
-69.5
-68.8
-67.8
-66.9
-66.1
-65.5
-65.0
-64.7
-64.4
-64.1
-63.9
-63.9
-64.1
-64.4
-64.6
-64.6
-64.1
-63.2
-61.9
-60.7
-59.4
-58.3
-57.4
-56.8
-56.0
-55.5
-55.1
-54.5
-53.5
-52.3
-50.9
-49.5
-48.2
-47.3
-46.8
-46.7
-46.5
-46.2
-45.8
-45.0
-44.2
-43.4
-42.8
-42.2
-41.7
-41.2
-40.6
-40.3
-40.5
-41.1
-42.0
-43.0
-43.4
-43.4
-43.1
-42.8
-42.6
-42.3
-42.3
-42.5
-43.0
-43.7
-44.5
-45.0
-45.4
-45.8
-46.1
-46.5
-46.7
-46.5
-45.8
-44.5
-43.0
-41.6
-40.6
-40.3
-40.3
-40.6
-40.9
-41.4
-41.9
-42.6
-43.4
-44.5
-45.4
-46.1
-46.1
-45.9
-45.3
-44.5
-43.4
-42.5
-42.0
-42.2
-42.6
-43.1
-43.6
-43.9
-44.4
-44.8
-45.6
-46.4
-47.5
-48.6
-49.6
-50.1
-50.1
-49.9
-49.6
-49.5
-49.3
-49.0
-47.9
-46.5
-44.8
-43.0
-41.1
-39.5
-38.3
-37.4
-36.4
-35.5
-33.9
-31.8
-29.1
-26.0
-22.6
-19.3
-16.2
-13.9
-12.5
-12.0
-12.3
-13.1
-14.2
-15.4
-16.8
-17.9
-18.8
-19.9
-21.0
-21.8
-22.3
-22.7
-22.9
-22.9
-23.0
-23.5
-24.8
-27.1
-31.1
-36.6
-42.5
-48.2
-52.9
-56.5
-59.3
-61.1
-62.2
-62.5
-62.7
-62.5
-62.4
-62.1
-61.5
-60.8
-60.1
-59.4
-59.1
-59.1
-59.3
-59.4
-59.6
-59.7
-59.6
-59.6
-59.6
-59.9
-60.4
-60.8
-61.1
-61.1
-60.7
-59.9
-59.1
-58.2
-57.6
-56.9
-56.2
-55.7
-55.4
-54.8
-54.0
-52.7
-50.6
-46.5
-39.4
-28.5
-12.9
7.5
33.2
63.6
98.9
139.2
184.3
232.7
280.6
322.7
351.5
360.1
343.1
298.3
225.2
127.2
12.9
-105.3
-215.6
-308.0
-377.0
-421.6
-443.6
-446.5
-434.9
-412.3
-382.3
-347.3
-310.1
-272.8
-237.0
-203.8
-173.9
-147.6
-125.4
-107.2
-93.0
-82.3
-74.5
-69.1
-65.3
-62.5
-60.1
-57.9
-56.0
-54.6
-53.4
-52.3
-51.3
-50.6
-49.8
-48.9
-47.9
-46.8
-45.6
-44.5
-43.4
-42.5
-41.6
-40.3
-39.2
-38.1
-36.9
-35.6
-34.4
-33.3
-32.7
-32.1
-31.8
-31.4
-31.1
-30.8
-30.2
-29.6
-29.0
-28.2
-27.2
-26.2
-24.8
-23.2
-21.8
-20.7
-19.8
-18.7
-17.3
-15.7
-13.9
-11.8
-9.8
-8.1
-6.7
-5.8
-5.0
-4.2
-3.1
-1.6
0.2
2.2
4.2
6.1
7.6
9.2
11.1
13.2
15.4
17.9
20.2
22.4
24.3
26.0
27.6
29.3
31.1
33.0
35.2
37.0
38.9
40.6
42.0
43.3
44.2
44.8
45.3
45.4
45.3
44.8
44.5
44.4
44.5
45.0
45.6
46.1
46.2
46.1
45.8
45.3
44.5
43.3
41.6
39.7
37.4
35.0
32.7
30.2
27.9
25.7
23.7
21.5
19.5
17.3
15.1
12.3
9.4
5.9
2.5
-1.1
-4.8
-8.4
-11.8
-14.8
-17.3
-19.5
-21.3
-23.2
-25.2
-27.6
-30.2
-32.8
-35.2
-37.2
-38.6
-39.7
-40.6
-41.2
-42.0
-43.0
-44.2
-45.3
-46.4
-47.3
-48.2
-48.9
-49.5
-50.1
-50.4
-50.6
-50.9
-51.0
-51.0
-50.9
-50.4
-50.1
-49.9
-50.3
-50.9
-51.7
-52.4
-52.9
-52.9
-52.4
-51.8
-51.2
-50.7
-50.6
-50.4
-50.3
-50.3
-50.1
-50.3
-50.6
-51.0
-51.8
-52.6
-53.2
-53.8
-54.3
-54.3
-54.1
-53.8
-53.5
-53.4
-53.1
-52.6
-52.0
-51.3
-51.0
-51.0
-51.0
-51.0
-51.0
-50.7
-50.3
-49.6
-48.9
-47.8
-46.7
-45.4
-44.4
-43.6
-43.0
-42.5
-42.2
-41.7
-41.2
-40.3
-39.4
-38.3
-37.0
-35.8
-34.9
-33.9
-33.5
-32.8
-31.8
-30.2
-28.8
-27.6
-26.5
-25.4
-24.6
-24.3
-24.3
-24.3
-24.1
-24.0
-24.0
-24.1
-24.4
-24.8
-25.4
-26.3
-27.4
-28.3
-28.8
-29.0
-28.6
-28.3
-28.0
-27.7
-27.7
-27.4
-27.1
-26.5
-25.7
-25.2
-25.1
-25.4
-26.0
-26.9
-27.4
-27.4
-26.8
-26.0
-25.2
-24.8
-24.6
-24.8
-25.2
-25.5
-26.2
-26.9
-27.9
-29.1
-30.7
-32.2
-33.6
-34.4
-34.7
-34.6
-34.2
-33.9
-33.6
-33.8
-34.2
-34.7
-35.0
-34.7
-34.1
-33.5
-33.2
-33.8
-35.0
-36.4
-37.4
-37.5
-37.0
-36.4
-35.8
-35.3
-34.9
-34.6
-34.1
-33.6
-33.0
-32.5
-32.2
-31.9
-31.8
-31.8
-31.4
-30.7
-29.7
-28.5
-27.1
-25.8
-24.6
-23.5
-22.7
-21.8
-20.9
-19.6
-17.8
-15.3
-12.3
-8.9
-5.5
-2.4
0.0
1.1
1.3
0.5
-1.0
-3.1
-5.0
-6.6
-7.5
-8.1
-8.4
-8.4
-8.1
-8.0
-8.0
-8.0
-7.6
-7.5
-7.6
-8.7
-11.4
-15.9
-22.1
-29.4
-36.7
-43.1
-47.9
-51.0
-52.6
-53.1
-53.2
-53.4
-53.7
-53.5
-53.1
-52.4
-51.8
-51.3
-51.5
-52.1
-53.1
-53.8
-54.5
-54.8
-54.8
-54.3
-53.5
-52.9
-52.7
-53.4
-54.0
-54.6
-54.9
-55.1
-54.8
-54.3
-53.5
-52.6
-51.5
-50.4
-49.5
-48.6
-47.6
-46.7
-45.4
-43.6
-39.4
-31.8
-19.6
-2.7
19.2
45.9
77.9
115.3
157.9
204.7
253.4
299.7
337.4
358.7
358.0
332.1
278.9
198.8
96.0
-19.9
-136.9
-243.4
-330.7
-394.7
-434.4
-451.3
-449.5
-433.8
-408.4
-376.9
-341.2
-303.4
-265.2
-228.3
-194.0
-163.2
-136.6
-114.3
-96.5
-82.5
-72.2
-65.0
-60.5
-57.9
-56.2
-54.8
-53.5
-52.3
-50.7
-49.0
-47.3
-45.9
-44.8
-43.7
-42.5
-41.1
-39.7
-38.3
-37.0
-36.3
-36.0
-35.6
-35.2
-34.4
-33.3
-31.8
-29.9
-28.2
-26.8
-25.8
-25.1
-24.6
-24.4
-24.4
-24.4
-24.4
-24.4
-24.4
-24.3
-23.8
-22.7
-20.7
-18.1
-14.8
-11.8
-9.5
-7.8
-6.4
-5.2
-3.8
-2.2
-0.3
1.3
2.8
4.1
5.0
6.1
7.5
9.4
11.4
13.2
14.8
15.9
16.8
17.6
18.4
19.5
21.0
22.9
25.1
27.1
29.3
31.4
33.8
36.3
38.8
40.8
42.6
44.4
46.1
47.2
47.8
48.1
48.4
48.6
48.7
48.6
47.9
47.0
46.1
45.3
44.7
43.9
42.8
41.7
40.6
39.4
38.0
37.0
36.3
35.6
35.2
34.4
33.2
31.4
29.6
27.6
25.7
24.0
22.1
19.9
17.3
14.3
11.1
7.8
4.4
1.1
-1.7
-4.2
-6.6
-8.7
-11.1
-13.7
-16.4
-19.0
-21.3
-23.2
-24.9
-26.5
-27.9
-29.4
-31.0
-32.5
-34.1
-35.5
-36.6
-37.4
-38.3
-39.2
-40.6
-42.2
-43.6
-44.7
-45.1
-45.4
-45.6
-46.1
-46.7
-47.8
-48.9
-50.1
-51.0
-51.7
-52.1
-52.6
-53.1
-53.7
-54.6
-55.4
-56.2
-56.5
-56.5
-56.3
-56.0
-55.4
-54.8
-54.1
-53.2
-52.1
-51.0
-49.9
-49.2
-48.9
-49.2
-49.6
-49.9
-50.1
-50.3
-50.1
-49.8
-49.6
-49.6
-49.8
-50.3
-50.6
-50.9
-50.9
-50.6
-50.4
-50.7
-51.0
-51.0
-50.3
-48.9
-47.0
-45.4
-44.4
-43.7
-43.9
-44.4
-45.1
-45.9
-46.2
-45.9
-45.0
-44.2
-43.4
-42.6
-41.6
-40.3
-39.1
-37.8
-36.3
-34.7
-33.3
-32.1
-31.1
-30.4
-29.6
-28.8
-28.3
-27.9
-27.4
-27.1
-27.2
-27.6
-28.2
-28.8
-29.3
-29.4
-29.3
-29.1
-29.0
-29.0
-29.1
-29.3
-29.4
-29.4
-29.4
-29.4
-29.4
-29.4
-29.6
-29.9
-30.0
-30.0
-29.9
-29.7
-29.7
-29.9
-30.5
-31.1
-31.8
-32.1
-32.5
-33.0
-33.3
-33.9
-34.7
-35.6
-36.6
-37.4
-38.0
-38.1
-38.0
-37.8
-37.5
-37.4
-37.0
-36.7
-36.3
-35.8
-35.3
-35.0
-35.2
-35.8
-36.7
-37.8
-38.8
-39.2
-39.4
-39.1
-38.4
-38.0
-37.8
-38.0
-38.4
-38.9
-39.4
-39.4
-39.1
-39.1
-39.2
-39.7
-40.0
-40.2
-39.8
-39.4
-38.4
-37.0
-35.5
-33.8
-31.8
-29.1
-26.2
-23.0
-19.9
-17.0
-14.0
-11.1
-8.6
-6.9
-6.2
-6.4
-7.0
-7.6
-8.0
-8.1
-8.3
-8.4
-8.9
-9.0
-9.0
-8.6
-8.1
-7.8
-7.5
-7.5
-8.3
-10.0
-12.8
-16.8
-22.0
-27.7
-33.5
-38.4
-42.3
-45.0
-46.8
-47.9
-48.4
-48.6
-48.9
-49.2
-49.6
-49.9
-50.3
-50.3
-50.1
-49.6
-48.9
-48.2
-47.8
-47.5
-47.2
-46.7
-46.2
-45.6
-45.0
-44.8
-45.1
-45.8
-46.2
-46.4
-45.9
-45.3
-44.2
-43.3
-42.6
-42.5
-42.5
-42.8
-43.1
-43.1
-42.6
-40.6
-36.4
-28.8
-17.1
-1.0
19.8
45.4
75.9
111.4
151.2
194.7
239.5
281.1
312.8
327.9
321.6
292.3
238.3
160.4
62.9
-45.1
-152.9
-249.8
-328.8
-386.2
-421.0
-434.6
-430.5
-413.7
-388.8
-358.7
-325.1
-289.6
-253.7
-218.5
-185.6
-156.2
-130.8
-109.7
-92.4
-78.7
-68.3
-60.5
-54.9
-50.9
-48.1
-46.2
-44.8
-43.3
-41.9
-40.5
-38.9
-37.5
-36.1
-35.0
-33.9
-33.0
-32.1
-31.1
-29.9
-28.6
-27.7
-27.1
-26.9
-26.9
-26.6
-26.0
-24.9
-23.5
-22.3
-21.3
-20.6
-19.9
-19.2
-18.2
-17.1
-16.2
-15.6
-15.1
-15.0
-14.8
-14.5
-13.7
-12.5
-11.4
-10.1
-8.9
-7.6
-6.6
-5.6
-4.5
-3.1
-1.3
1.1
3.6
5.8
7.5
8.7
9.4
10.0
10.6
11.5
12.8
14.0
15.1
16.2
17.3
19.2
21.5
24.1
27.1
29.7
31.9
33.8
35.2
36.1
36.9
37.8
38.9
40.2
41.4
42.2
42.6
42.5
41.7
40.9
40.2
39.8
39.8
39.7
39.4
38.4
37.5
36.4
35.5
34.6
33.8
33.2
32.8
32.2
31.1
30.0
28.6
27.2
25.7
24.0
22.1
20.2
18.2
16.0
13.9
11.8
9.8
8.0
6.4
4.7
3.0
0.8
-1.6
-4.5
-7.6
-11.1
-14.5
-18.1
-21.0
-23.4
-24.6
-25.1
-25.4
-25.8
-26.5
-27.1
-28.2
-29.9
-31.8
-33.5
-35.0
-36.4
-37.7
-38.9
-40.2
-41.7
-43.4
-45.0
-45.9
-46.1
-45.8
-45.1
-44.5
-44.0
-44.0
-44.5
-45.0
-45.4
-45.6
-45.6
-45.8
-46.1
-46.5
-47.3
-48.2
-49.0
-49.9
-50.9
-51.8
-52.4
-52.9
-53.2
-53.5
-54.0
-54.5
-55.1
-55.7
-56.0
-56.3
-56.2
-55.5
-54.6
-53.2
-51.8
-50.6
-49.6
-49.2
-49.2
-49.6
-50.1
-50.9
-52.0
-53.1
-53.8
-54.0
-53.8
-53.1
-51.5
-49.0
-45.8
-42.6
-40.2
-38.4
-37.5
-36.7
-36.6
-36.9
-37.7
-38.3
-38.1
-37.4
-35.6
-33.5
-31.8
-30.7
-30.4
-30.2
-29.7
-29.3
-28.6
-28.5
-28.8
-29.4
-30.4
-31.1
-31.6
-31.6
-31.8
-31.9
-32.1
-32.2
-31.8
-30.7
-29.1
-27.7
-26.8
-26.5
-26.5
-26.8
-27.1
-27.4
-27.9
-28.3
-29.1
-29.6
-29.4
-29.0
-28.3
-27.9
-27.4
-26.6
-25.7
-24.8
-24.3
-24.4
-25.4
-26.9
-28.6
-29.7
-30.2
-30.0
-29.6
-29.3
-29.1
-29.4
-30.0
-30.8
-31.3
-31.4
-30.8
-29.9
-29.3
-29.1
-29.7
-30.8
-31.8
-32.4
-32.4
-32.2
-32.2
-32.8
-34.1
-35.6
-37.0
-38.0
-38.3
-38.3
-38.1
-38.1
-38.3
-38.3
-38.1
-37.5
-36.6
-35.6
-35.0
-34.4
-34.2
-34.7
-35.6
-36.6
-36.9
-36.7
-36.0
-35.0
-33.9
-32.8
-31.9
-31.1
-30.8
-30.5
-29.6
-27.9
-25.7
-23.4
-21.2
-19.0
-16.4
-13.2
-10.3
-8.0
-6.6
-6.1
-6.2
-7.0
-8.0
-9.2
-10.4
-11.5
-12.5
-13.1
-13.7
-14.6
-15.6
-16.2
-16.4
-16.0
-15.7
-15.7
-16.5
-18.5
-22.4
-27.9
-34.1
-39.7
-44.0
-47.3
-49.5
-50.6
-51.5
-52.3
-53.1
-53.5
-53.5
-53.1
-52.4
-52.0
-52.1
-52.7
-53.7
-54.5
-55.1
-55.4
-55.2
-54.5
-53.7
-52.7
-52.1
-51.7
-50.9
-49.9
-49.0
-48.4
-47.9
-47.9
-48.1
-48.4
-48.6
-48.6
-48.4
-48.2
-48.1
-47.8
-47.3
-45.8
-42.0
-35.0
-23.7
-7.3
13.7
39.7
70.3
105.6
146.1
190.7
237.2
281.4
317.6
338.6
338.0
311.4
257.1
176.4
74.8
-37.4
-148.1
-246.7
-325.2
-380.1
-411.8
-422.9
-417.6
-400.3
-374.5
-343.3
-308.7
-273.1
-238.0
-204.8
-174.8
-147.9
-124.3
-104.2
-88.1
-75.5
-66.6
-60.7
-56.9
-54.8
-52.7
-50.3
-47.8
-45.3
-43.4
-42.2
-41.2
-40.2
-39.1
-37.5
-35.8
-33.8
-31.9
-30.4
-29.6
-29.7
-30.2
-30.5
-30.2
-29.1
-27.2
-25.2
-23.5
-22.3
-21.3
-20.9
-20.4
-19.5
-18.5
-17.6
-17.1
-16.7
-16.0
-14.8
-13.2
-11.7
-10.4
-9.4
-8.7
-8.4
-8.6
-9.0
-9.0
-8.6
-7.3
-5.6
-3.4
-1.1
1.0
2.8
4.4
6.1
8.1
10.1
12.2
13.7
14.8
15.3
15.6
15.9
16.7
18.1
20.1
22.3
24.3
26.0
27.4
28.6
30.2
31.9
33.9
36.1
38.1
39.8
41.4
42.8
43.9
44.8
45.6
46.7
48.1
49.5
50.3
50.6
50.3
50.1
50.3
50.6
51.0
51.2
51.0
50.6
49.9
49.3
48.6
47.5
46.1
44.0
41.6
38.6
35.2
31.6
28.2
24.9
22.3
19.8
17.6
15.4
12.8
9.8
6.7
3.6
0.8
-1.7
-4.4
-7.0
-9.7
-12.3
-15.0
-17.3
-19.6
-22.0
-24.1
-26.2
-27.9
-29.4
-31.1
-32.8
-34.4
-35.3
-36.0
-36.3
-36.4
-36.9
-37.7
-38.9
-40.3
-41.7
-42.8
-43.7
-44.4
-44.8
-45.1
-45.4
-45.6
-46.2
-46.7
-47.2
-47.2
-47.2
-47.2
-47.5
-48.2
-48.9
-49.0
-49.0
-48.7
-48.4
-48.7
-49.3
-49.9
-50.4
-50.4
-50.4
-50.7
-51.2
-52.0
-52.7
-53.5
-54.0
-54.1
-54.0
-53.8
-53.8
-53.7
-53.7
-53.8
-54.3
-54.8
-55.1
-55.2
-55.1
-54.9
-54.5
-53.8
-53.2
-52.9
-52.7
-52.4
-52.1
-51.7
-51.0
-50.4
-49.8
-49.5
-49.3
-49.2
-48.9
-48.1
-47.0
-45.9
-45.1
-44.8
-44.7
-44.7
-44.5
-44.0
-43.4
-42.5
-41.7
-41.1
-40.6
-39.8
-38.9
-37.5
-36.1
-34.7
-33.6
-33.2
-33.5
-34.4
-35.0
-35.3
-35.3
-35.2
-34.7
-34.1
-33.8
-33.9
-34.4
-34.9
-35.5
-36.3
-37.0
-37.5
-37.8
-38.0
-38.1
-38.8
-39.4
-40.2
-40.8
-41.1
-40.9
-40.5
-39.7
-38.9
-38.0
-37.0
-36.1
-35.5
-35.5
-35.8
-36.4
-37.2
-37.8
-38.3
-38.3
-38.0
-37.7
-37.7
-38.3
-39.2
-40.3
-40.9
-41.1
-40.8
-40.2
-39.5
-39.1
-39.2
-39.7
-40.2
-40.5
-40.3
-39.8
-39.5
-39.4
-39.5
-39.8
-40.3
-40.8
-41.1
-41.4
-41.9
-42.3
-42.6
-42.8
-42.8
-42.3
-41.2
-40.0
-38.4
-36.9
-35.5
-34.1
-32.2
-29.9
-27.2
-24.1
-20.9
-17.4
-14.3
-12.0
-10.9
-10.9
-11.5
-12.3
-13.1
-13.9
-14.6
-15.7
-16.8
-17.4
-17.9
-17.9
-17.8
-17.4
-16.8
-16.2
-15.7
-16.0
-17.3
-20.1
-24.6
-30.5
-37.0
-43.1
-48.1
-52.1
-55.4
-57.7
-59.4
-60.4
-60.5
-60.2
-59.9
-59.4
-59.1
-58.8
-58.3
-57.9
-57.3
-56.9
-57.1
-57.3
-57.4
-57.4
-57.4
-57.3
-56.9
-56.5
-55.9
-55.2
-55.1
-55.1
-55.2
-55.7
-55.9
-55.7
-55.2
-54.8
-54.5
-54.5
-54.9
-55.5
-56.3
-56.3
-54.0
-48.1
-37.4
-21.5
-1.0
24.1
54.0
89.1
130.0
176.1
225.4
273.9
315.6
342.8
348.7
329.0
282.0
207.5
108.7
-5.6
-124.3
-235.0
-328.5
-399.1
-444.8
-467.1
-468.9
-455.4
-430.8
-399.1
-363.0
-324.9
-286.8
-250.0
-215.3
-184.0
-156.6
-133.6
-115.1
-100.5
-89.3
-80.9
-75.0
-70.9
-67.8
-65.7
-64.3
-63.5
-62.9
-62.2
-61.0
-59.3
-57.3
-55.7
-54.5
-53.5
-52.6
-51.7
-50.3
-48.6
-46.4
-44.2
-42.0
-40.0
-38.6
-37.7
-37.2
-36.7
-36.3
-36.0
-36.0
-36.7
-37.7
-38.4
-38.6
-38.0
-36.9
-35.3
-34.1
-32.8
-31.8
-30.5
-29.1
-27.7
-26.0
-24.0
-22.1
-20.1
-18.2
-16.7
-15.0
-13.6
-12.3
-10.9
-9.2
-7.3
-5.5
-3.6
-1.4
0.8
3.4
6.2
8.9
11.7
14.5
16.8
18.7
19.9
21.3
22.9
24.6
26.3
28.2
30.2
31.9
33.3
34.4
35.6
37.2
39.1
41.1
42.6
43.4
43.7
43.7
43.9
44.0
44.4
44.7
45.1
45.4
45.8
45.6
45.0
44.2
43.0
41.9
40.8
40.0
39.4
38.6
37.7
36.6
35.0
33.3
31.3
29.1
26.6
24.3
22.0
19.8
17.8
15.7
13.7
11.2
8.6
5.8
2.7
-1.1
-5.5
-9.7
-13.4
-16.7
-19.5
-21.6
-23.4
-24.8
-26.2
-27.4
-28.8
-30.2
-31.9
-33.6
-35.5
-37.2
-38.9
-40.5
-42.0
-43.6
-44.8
-45.9
-46.8
-47.9
-49.0
-50.1
-50.9
-51.2
-51.0
-51.0
-51.3
-52.0
-53.1
-54.3
-55.2
-55.7
-55.9
-55.5
-55.4
-55.2
-55.4
-56.2
-57.4
-58.7
-59.7
-60.1
-59.7
-59.1
-58.5
-58.0
-58.2
-58.8
-59.6
-60.4
-60.7
-60.8
-61.1
-61.6
-62.4
-62.9
-62.9
-62.4
-61.8
-61.0
-60.1
-59.0
-58.3
-57.9
-57.7
-57.4
-57.1
-56.3
-55.5
-54.6
-54.1
-54.0
-54.0
-54.0
-53.5
-52.6
-51.3
-49.8
-48.4
-47.2
-46.1
-45.0
-44.0
-43.4
-43.1
-42.8
-42.3
-41.9
-41.6
-41.4
-40.9
-40.3
-39.8
-39.8
-40.0
-40.2
-40.0
-39.4
-37.8
-36.0
-33.9
-32.7
-32.5
-33.0
-33.8
-34.6
-35.2
-35.3
-34.6
-32.5
-29.7
-26.6
-24.3
-23.4
-23.4
-24.3
-25.5
-26.9
-28.2
-29.3
-29.9
-30.4
-31.0
-31.6
-32.1
-32.4
-32.2
-31.9
-31.6
-31.6
-31.9
-32.1
-32.2
-32.2
-32.2
-32.1
-31.8
-31.6
-31.4
-31.8
-32.1
-32.4
-32.8
-33.5
-34.4
-35.3
-36.1
-37.0
-38.0
-38.8
-39.1
-38.4
-37.4
-36.0
-34.7
-33.6
-33.0
-32.8
-33.0
-32.8
-32.2
-31.0
-29.1
-26.6
-23.5
-20.4
-17.6
-15.6
-13.2
-10.3
-6.4
-2.5
0.5
2.2
2.5
2.0
1.6
1.0
0.0
-1.0
-2.0
-3.1
-4.2
-5.9
-7.5
-8.3
-8.1
-7.2
-5.9
-5.2
-5.5
-7.0
-10.1
-14.8
-20.7
-27.1
-33.3
-38.9
-43.6
-47.5
-50.7
-53.2
-55.1
-56.2
-56.5
-56.3
-55.7
-54.9
-54.3
-53.5
-52.7
-51.7
-50.7
-50.3
-50.3
-50.6
-51.2
-51.7
-52.1
-52.3
-52.0
-51.2
-50.3
-49.6
-49.5
-49.6
-50.1
-50.7
-51.5
-52.1
-52.1
-51.3
-50.3
-49.3
-48.7
-47.6
-45.1
-40.0
-30.8
-17.0
1.9
25.7
54.6
88.5
127.6
171.6
219.0
267.2
311.1
343.4
356.6
345.3
306.7
240.6
149.0
38.4
-80.3
-195.4
-296.6
-377.2
-433.5
-465.0
-473.9
-464.6
-442.8
-413.2
-379.0
-342.0
-303.4
-264.6
-227.1
-191.9
-160.7
-133.6
-111.1
-92.6
-78.3
-67.8
-60.7
-56.2
-53.5
-52.0
-51.2
-50.7
-50.1
-49.0
-47.6
-45.6
-43.3
-41.4
-40.0
-39.1
-38.4
-38.0
-37.5
-37.4
-36.7
-35.8
-34.2
-32.4
-30.7
-29.3
-28.2
-27.6
-26.9
-26.2
-25.5
-25.1
-24.6
-24.4
-24.3
-24.0
-23.7
-23.2
-22.4
-20.9
-18.8
-16.7
-15.0
-13.4
-11.8
-10.0
-8.0
-5.9
-4.2
-2.8
-1.6
-0.3
1.1
2.8
4.7
6.2
7.8
9.5
11.5
13.2
14.3
15.0
15.1
15.1
15.6
17.4
20.4
23.4
25.5
27.1
28.3
30.0
32.2
34.6
37.0
40.0
43.3
46.4
48.9
50.7
52.0
52.6
52.7
52.9
53.5
54.8
56.2
57.4
58.2
58.7
59.0
59.0
58.7
57.9
56.5
54.6
53.1
52.1
51.7
51.2
50.6
49.3
47.5
45.4
43.1
40.6
38.4
36.6
34.6
31.9
28.6
25.1
21.3
18.1
15.4
12.9
10.8
8.6
6.4
4.2
1.7
-1.0
-4.2
-7.3
-9.8
-12.0
-13.9
-15.7
-17.9
-20.6
-23.4
-26.0
-28.3
-30.5
-32.7
-34.9
-37.2
-39.5
-41.4
-42.8
-43.4
-43.7
-44.0
-44.4
-45.1
-46.2
-47.5
-48.7
-49.6
-50.3
-50.6
-51.0
-51.7
-52.7
-53.8
-54.8
-55.7
-56.6
-57.3
-58.0
-58.8
-59.6
-60.2
-60.7
-61.1
-61.5
-61.6
-61.8
-61.9
-62.2
-62.5
-62.7
-62.5
-62.1
-61.0
-59.9
-58.8
-57.7
-56.8
-56.9
-58.0
-59.1
-59.6
-59.4
-58.8
-58.2
-57.6
-56.9
-56.3
-55.4
-54.6
-54.0
-53.2
-52.6
-52.1
-51.8
-51.3
-50.7
-49.9
-49.3
-49.2
-49.2
-48.9
-47.9
-46.7
-45.4
-44.4
-43.3
-42.2
-41.2
-40.5
-39.4
-38.3
-37.7
-37.8
-38.8
-39.8
-40.8
-41.6
-41.9
-41.9
-41.7
-41.6
-40.9
-40.0
-38.8
-37.8
-37.2
-36.7
-36.4
-36.6
-37.2
-38.1
-39.1
-39.7
-40.0
-39.8
-39.4
-38.9
-38.6
-38.6
-38.9
-39.4
-39.8
-40.2
-40.5
-41.2
-42.5
-43.9
-44.7
-44.8
-44.5
-44.0
-43.7
-43.3
-42.6
-41.9
-41.4
-41.1
-41.1
-40.9
-40.8
-40.6
-40.3
-40.3
-40.6
-40.8
-40.6
-40.0
-39.1
-38.1
-37.2
-36.1
-34.6
-32.2
-29.7
-27.1
-24.9
-23.4
-22.1
-20.9
-19.8
-18.7
-17.8
-16.5
-14.6
-12.2
-9.2
-6.6
-5.0
-4.2
-4.2
-4.4
-5.2
-6.6
-8.1
-9.4
-10.3
-11.2
-12.0
-12.5
-12.3
-11.5
-10.6
-9.8
-10.0
-10.9
-13.1
-16.7
-22.1
-29.4
-37.2
-44.7
-50.7
-55.4
-58.7
-60.7
-61.6
-61.9
-61.6
-60.8
-59.4
-58.3
-57.6
-57.3
-57.3
-57.3
-56.9
-56.5
-56.0
-55.4
-54.9
-55.1
-55.4
-55.9
-56.2
-56.0
-55.5
-54.6
-53.5
-52.6
-52.3
-52.0
-51.8
-51.5
-51.5
-51.7
-51.8
-51.7
-51.0
-49.5
-46.1
-39.8
-29.4
-14.0
6.7
32.7
63.3
98.9
140.0
186.2
236.0
285.4
329.1
359.6
369.9
354.9
312.2
240.9
144.0
29.4
-91.0
-205.3
-303.1
-378.4
-429.1
-455.7
-461.1
-450.3
-427.6
-397.2
-361.6
-323.2
-284.0
-246.2
-210.9
-178.6
-149.3
-124.1
-103.1
-86.8
-74.7
-66.1
-60.2
-56.5
-53.8
-51.8
-50.1
-48.4
-46.8
-45.3
-43.9
-42.6
-41.1
-39.2
-37.5
-36.1
-34.9
-33.9
-33.2
-32.7
-32.4
-32.1
-31.8
-31.3
-30.8
-30.5
-30.2
-30.0
-29.9
-29.7
-29.4
-29.0
-28.2
-27.2
-26.2
-25.1
-24.3
-23.7
-22.7
-21.8
-20.9
-19.9
-19.2
-18.7
-18.4
-18.2
-17.8
-16.8
-15.3
-13.2
-10.9
-8.7
-7.2
-6.2
-5.3
-4.2
-2.8
-1.1
0.6
2.5
4.4
6.4
8.6
10.6
12.5
14.5
16.7
18.8
21.3
23.8
26.5
29.1
31.8
34.1
36.3
38.1
39.8
40.9
41.4
41.7
42.3
43.4
44.7
46.2
47.6
49.0
50.1
50.9
51.5
52.0
52.3
52.6
52.3
51.5
50.1
48.4
46.4
44.4
42.5
40.8
39.2
37.8
36.4
34.7
33.0
31.1
29.0
26.9
24.8
22.9
20.9
18.5
15.4
11.8
7.8
4.1
0.3
-3.0
-6.1
-9.0
-12.0
-15.1
-18.1
-20.6
-22.7
-24.6
-26.5
-28.6
-31.4
-34.4
-37.4
-40.3
-43.0
-45.6
-48.6
-51.5
-54.6
-57.3
-59.6
-61.5
-63.2
-64.6
-65.7
-66.0
-65.8
-65.7
-65.8
-66.3
-66.9
-67.4
-67.8
-68.3
-68.8
-69.5
-70.5
-71.4
-72.3
-73.0
-73.1
-72.8
-72.3
-71.9
-71.3
-70.6
-70.3
-70.3
-70.5
-70.5
-70.3
-69.9
-69.5
-69.7
-70.3
-71.4
-72.5
-73.3
-73.7
-73.6
-73.4
-73.0
-72.5
-71.9
-70.9
-70.0
-69.4
-69.1
-69.4
-70.0
-70.6
-71.3
-71.6
-71.6
-71.1
-69.9
-68.3
-66.4
-64.6
-62.9
-61.8
-61.5
-61.3
-61.3
-61.0
-60.5
-59.9
-59.4
-59.1
-59.3
-59.4
-59.6
-59.4
-59.0
-58.0
-57.3
-56.6
-56.2
-55.5
-54.3
-52.9
-51.5
-50.3
-49.5
-49.2
-49.0
-49.2
-49.5
-49.5
-49.3
-49.3
-49.2
-49.2
-49.0
-49.0
-49.0
-49.0
-48.7
-48.4
-47.8
-47.0
-46.4
-45.9
-45.9
-46.2
-46.5
-46.7
-46.7
-46.5
-46.5
-46.7
-47.0
-47.5
-47.8
-47.6
-47.2
-46.4
-46.1
-46.4
-47.0
-47.8
-48.6
-48.7
-48.2
-47.2
-45.6
-44.2
-43.0
-42.2
-41.6
-40.6
-39.5
-38.1
-36.7
-35.2
-33.5
-31.4
-29.3
-26.3
-22.7
-19.0
-15.9
-14.0
-13.7
-14.3
-15.7
-17.6
-19.5
-21.2
-22.6
-23.7
-24.6
-25.5
-26.5
-27.2
-27.6
-27.4
-27.1
-26.8
-26.8
-27.6
-29.7
-33.8
-38.9
-44.5
-49.3
-53.1
-55.4
-57.1
-58.3
-59.4
-60.1
-59.9
-59.3
-58.3
-57.6
-57.3
-57.3
-57.6
-57.9
-58.5
-59.1
-59.4
-59.1
-58.8
-58.7
-58.8
-59.3
-59.6
-59.4
-58.8
-57.9
-57.1
-56.5
-56.5
-56.6
-57.1
-57.6
-57.9
-57.9
-57.9
-57.9
-57.9
-56.9
-54.0
-47.9
-38.3
-24.4
-6.4
16.4
44.0
76.5
113.4
154.0
196.1
237.0
271.3
291.9
293.7
274.1
231.8
166.3
80.3
-19.5
-123.0
-219.8
-301.9
-364.9
-407.5
-430.2
-434.9
-425.2
-405.0
-377.9
-346.5
-312.3
-276.9
-241.6
-207.5
-175.6
-147.3
-122.9
-103.0
-87.0
-74.5
-64.9
-57.9
-53.1
-49.8
-47.5
-45.8
-44.0
-42.6
-41.6
-41.2
-41.4
-41.7
-42.0
-41.7
-40.8
-39.5
-38.1
-36.9
-35.8
-34.9
-33.9
-32.5
-30.8
-29.0
-27.2
-25.8
-25.2
-25.2
-25.4
-25.5
-25.4
-24.8
-23.8
-22.6
-21.0
-19.6
-18.2
-17.0
-15.6
-14.0
-12.2
-10.0
-7.8
-5.6
-3.8
-2.5
-1.7
-1.3
-0.5
0.2
1.1
2.2
3.4
5.0
6.6
8.1
9.8
11.7
13.4
15.0
16.0
16.7
17.3
17.9
19.0
20.4
22.0
23.5
25.4
27.6
29.7
31.9
34.1
36.4
38.6
40.6
42.3
43.3
43.7
43.7
43.7
43.9
44.0
44.4
44.8
45.4
46.2
46.4
46.2
45.8
45.3
44.7
44.4
44.4
44.2
43.6
42.6
41.4
39.8
38.1
36.1
34.1
31.8
29.3
26.6
24.0
21.2
18.5
16.0
13.4
10.9
8.1
5.0
1.6
-2.0
-6.1
-10.0
-13.7
-17.1
-20.4
-23.5
-26.6
-29.6
-32.2
-34.6
-36.6
-38.4
-40.2
-42.0
-43.9
-46.1
-48.1
-49.8
-51.0
-51.5
-51.8
-52.1
-52.3
-52.7
-53.1
-53.5
-54.0
-54.5
-54.9
-55.4
-56.0
-56.6
-57.3
-57.9
-58.2
-58.5
-58.5
-58.7
-58.7
-58.8
-59.0
-59.4
-60.4
-61.3
-62.1
-62.7
-63.2
-63.8
-64.7
-65.7
-66.7
-67.7
-68.3
-68.5
-68.3
-68.0
-68.0
-68.3
-68.8
-69.2
-69.2
-68.9
-68.8
-68.8
-68.8
-68.6
-68.5
-68.1
-67.7
-67.1
-66.4
-65.7
-64.6
-63.3
-62.2
-61.3
-60.7
-60.2
-59.6
-58.7
-57.6
-56.5
-55.5
-54.6
-53.7
-52.9
-52.0
-51.0
-49.6
-48.4
-47.6
-47.2
-47.2
-47.5
-47.6
-47.5
-46.8
-45.9
-44.8
-44.0
-43.3
-42.8
-42.2
-41.6
-40.9
-40.3
-39.7
-39.2
-39.1
-38.9
-38.8
-38.4
-37.7
-37.0
-36.7
-36.7
-36.9
-36.9
-36.9
-36.7
-36.4
-36.0
-35.3
-35.0
-35.0
-35.5
-36.3
-37.0
-37.8
-38.8
-39.5
-40.0
-40.5
-40.8
-41.1
-41.6
-42.0
-41.9
-41.6
-40.9
-40.2
-39.7
-39.2
-38.9
-38.4
-38.3
-38.6
-39.4
-40.5
-41.2
-41.7
-41.9
-41.9
-41.6
-40.8
-39.4
-37.5
-35.2
-33.2
-31.3
-29.4
-27.4
-25.4
-23.2
-20.9
-18.7
-16.4
-14.2
-12.5
-11.4
-11.2
-11.7
-12.6
-13.4
-13.7
-14.0
-14.3
-15.0
-15.9
-16.7
-17.3
-17.4
-17.1
-16.7
-16.7
-17.1
-18.4
-20.2
-23.0
-27.2
-32.7
-38.9
-44.8
-49.9
-54.1
-57.1
-59.1
-60.1
-60.1
-59.1
-57.9
-56.9
-56.8
-57.3
-58.2
-59.1
-60.1
-60.8
-61.1
-61.3
-61.1
-61.0
-60.7
-59.9
-59.0
-57.6
-56.2
-54.8
-53.5
-52.4
-51.7
-51.2
-51.0
-50.9
-50.9
-50.9
-51.3
-52.1
-53.1
-53.7
-53.4
-51.8
-47.9
-40.9
-30.0
-14.5
5.3
29.9
59.1
93.3
132.7
176.7
223.5
268.9
307.3
331.4
334.6
312.9
264.7
190.2
93.7
-16.0
-127.7
-229.9
-314.0
-375.5
-413.4
-429.9
-429.0
-414.8
-391.2
-361.1
-326.8
-290.7
-254.6
-219.9
-187.7
-158.3
-132.7
-111.2
-94.4
-81.5
-72.3
-65.7
-61.1
-58.0
-55.9
-54.3
-53.2
-52.6
-52.1
-51.7
-50.9
-49.8
-48.7
-47.8
-47.2
-46.7
-46.1
-45.3
-44.2
-43.1
-41.9
-40.3
-38.9
-38.1
-37.8
-38.0
-38.0
-37.7
-37.0
-36.1
-34.9
-33.9
-33.3
-33.2
-33.0
-32.5
-31.9
-30.8
-29.6
-28.2
-26.8
-25.7
-24.9
-24.3
-23.2
-21.8
-20.2
-18.7
-17.3
-16.2
-15.3
-14.3
-12.9
-11.2
-9.2
-7.0
-4.7
-2.5
-0.8
0.2
1.3
2.8
5.0
7.5
10.4
13.6
16.4
19.0
21.3
23.5
25.7
28.0
30.5
32.7
34.7
36.3
37.4
38.0
38.6
39.2
40.0
40.9
42.0
43.1
44.2
45.0
45.6
45.9
45.9
45.8
45.4
44.8
44.0
42.8
41.6
40.3
38.9
37.7
36.4
35.2
33.5
31.4
29.3
27.1
24.9
22.9
20.9
18.8
16.8
14.8
12.5
10.0
7.6
5.2
2.8
0.5
-2.0
-5.2
-8.7
-12.5
-16.2
-19.8
-22.9
-25.7
-27.9
-30.0
-31.9
-33.8
-35.5
-37.2
-39.1
-40.9
-42.5
-44.2
-45.8
-47.6
-49.3
-50.9
-52.1
-53.2
-54.1
-55.1
-56.0
-56.9
-57.7
-58.0
-58.2
-58.2
-57.9
-57.4
-57.1
-57.1
-57.7
-58.8
-60.1
-61.0
-61.5
-61.8
-61.9
-62.2
-62.9
-63.5
-64.1
-64.1
-63.8
-63.2
-62.4
-61.3
-60.4
-59.6
-59.1
-58.7
-58.5
-58.3
-58.3
-58.3
-58.3
-58.5
-59.1
-60.2
-61.5
-62.2
-62.5
-62.4
-62.2
-62.1
-61.8
-61.5
-61.0
-60.4
-59.6
-58.7
-57.9
-57.1
-56.8
-56.8
-56.5
-56.0
-55.1
-53.8
-52.4
-51.0
-49.8
-49.0
-48.1
-47.2
-46.2
-45.4
-44.8
-44.4
-44.2
-44.2
-44.2
-44.4
-44.2
-44.0
-43.6
-42.8
-41.9
-41.1
-40.3
-39.8
-39.8
-39.8
-39.7
-39.2
-38.8
-38.4
-38.4
-38.8
-39.4
-39.4
-38.9
-37.8
-36.6
-35.8
-35.5
-35.8
-36.6
-37.2
-37.5
-37.4
-36.9
-36.3
-35.8
-35.6
-35.8
-36.1
-36.6
-36.7
-36.7
-36.6
-36.7
-37.2
-38.3
-39.5
-40.9
-42.3
-43.9
-45.1
-45.9
-46.4
-46.7
-47.0
-47.5
-47.9
-48.6
-48.7
-48.2
-47.8
-47.3
-47.3
-47.8
-48.2
-48.6
-48.4
-47.6
-46.4
-44.7
-42.6
-40.5
-38.4
-36.6
-34.9
-33.3
-31.4
-29.6
-28.0
-26.3
-24.1
-21.3
-18.2
-15.3
-13.1
-11.8
-11.7
-12.2
-13.2
-14.5
-15.7
-16.8
-18.1
-19.2
-19.9
-20.4
-20.6
-20.6
-20.4
-20.2
-20.2
-20.7
-22.0
-24.3
-28.2
-33.6
-39.8
-45.9
-50.9
-54.6
-57.3
-59.0
-60.4
-61.5
-62.1
-62.4
-62.4
-61.9
-61.3
-60.8
-60.8
-61.1
-61.3
-61.3
-61.0
-60.4
-59.6
-59.0
-58.3
-58.2
-58.5
-58.8
-59.1
-59.0
-58.2
-57.3
-56.3
-55.4
-54.6
-54.0
-53.7
-53.5
-53.8
-54.1
-54.5
-54.6
-54.1
-52.6
-48.7
-41.2
-29.1
-11.7
11.1
39.1
72.2
110.4
154.0
202.2
252.3
299.7
337.8
358.8
356.2
326.2
267.1
180.3
71.9
-47.2
-164.6
-268.9
-352.7
-412.5
-447.5
-460.7
-456.2
-438.4
-411.5
-378.4
-341.6
-303.6
-266.3
-231.0
-198.6
-169.7
-144.2
-122.4
-104.5
-90.4
-80.0
-72.5
-67.4
-63.9
-61.5
-59.6
-57.7
-55.9
-53.7
-51.7
-49.9
-48.9
-47.9
-47.0
-45.8
-44.5
-43.1
-41.9
-40.5
-39.4
-38.6
-38.0
-36.9
-35.3
-33.2
-31.1
-29.4
-28.5
-27.7
-27.2
-26.5
-25.7
-24.8
-23.8
-22.9
-22.0
-21.3
-21.0
-20.4
-19.3
-17.6
-15.7
-14.0
-12.9
-12.0
-11.2
-10.4
-9.4
-8.1
-6.9
-5.8
-4.8
-4.1
-3.4
-2.8
-2.0
-1.1
0.2
1.9
4.2
6.4
8.6
10.4
12.2
14.3
16.7
19.3
21.8
24.3
26.2
27.6
28.8
30.0
31.8
33.5
35.5
37.5
39.4
41.1
42.5
43.9
45.1
46.7
48.4
49.9
51.2
52.1
52.4
52.1
51.3
50.7
50.3
50.1
49.9
49.3
48.1
46.4
44.2
42.0
40.0
38.3
36.4
34.4
32.2
29.7
27.2
24.8
22.6
20.7
18.8
17.0
14.6
12.0
9.0
5.9
2.8
0.0
-2.8
-5.6
-8.6
-11.8
-15.1
-18.7
-22.3
-25.7
-29.0
-32.2
-35.5
-38.8
-41.7
-44.0
-45.6
-46.7
-47.3
-47.8
-48.4
-49.0
-49.8
-50.9
-52.1
-53.2
-54.0
-54.6
-54.6
-54.3
-53.5
-53.1
-53.1
-53.5
-54.5
-55.5
-56.5
-56.9
-57.1
-57.3
-57.6
-58.2
-58.8
-59.3
-59.7
-59.9
-59.9
-59.7
-59.7
-60.1
-60.4
-60.8
-61.0
-60.8
-60.5
-60.2
-60.1
-60.1
-60.2
-60.7
-61.1
-61.6
-61.9
-62.2
-62.1
-61.9
-61.6
-61.5
-61.1
-60.5
-59.9
-59.1
-58.2
-57.3
-56.6
-56.2
-55.9
-55.9
-55.5
-55.2
-54.9
-54.5
-54.3
-54.0
-53.8
-53.5
-52.9
-52.1
-51.2
-50.3
-49.5
-48.7
-48.1
-47.6
-47.2
-46.5
-45.4
-43.9
-42.3
-40.9
-40.2
-39.7
-39.1
-38.3
-37.5
-36.7
-36.1
-35.6
-35.2
-35.0
-35.0
-35.5
-36.3
-37.0
-37.8
-38.1
-38.1
-37.8
-37.7
-37.4
-37.0
-36.3
-35.5
-34.6
-33.9
-33.9
-34.7
-36.0
-37.0
-38.1
-38.9
-39.2
-39.4
-39.4
-39.4
-39.4
-39.5
-39.7
-39.7
-39.5
-39.1
-38.8
-38.4
-38.4
-38.6
-38.8
-39.1
-39.5
-39.8
-40.2
-40.5
-40.8
-41.2
-41.6
-42.0
-42.2
-42.2
-41.9
-41.6
-41.6
-42.2
-43.1
-43.7
-43.9
-43.4
-42.5
-41.2
-40.2
-39.2
-38.4
-37.5
-36.3
-34.9
-33.5
-32.5
-32.1
-31.6
-30.5
-29.0
-26.9
-24.8
-22.1
-18.8
-15.3
-11.5
-8.4
-6.6
-6.1
-6.6
-7.5
-8.7
-9.7
-10.6
-11.5
-12.6
-14.2
-15.6
-16.8
-17.1
-16.8
-15.9
-14.8
-13.9
-13.6
-14.2
-16.2
-19.8
-24.9
-30.5
-35.6
-40.0
-43.3
-46.2
-48.9
-51.0
-52.6
-53.5
-53.5
-53.1
-52.3
-51.7
-51.3
-50.9
-50.6
-50.4
-50.4
-50.6
-51.0
-51.8
-52.9
-53.8
-54.3
-54.3
-53.7
-52.7
-52.0
-51.5
-51.5
-51.3
-50.9
-49.9
-48.7
-47.3
-46.1
-45.4
-45.1
-45.3
-45.1
-44.0
-41.6
-36.6
-28.2
-15.6
1.6
23.5
50.4
82.9
121.3
165.3
213.6
262.7
307.6
340.9
355.7
346.8
312.5
251.5
165.0
59.0
-56.8
-170.5
-271.3
-351.8
-408.7
-441.2
-451.8
-444.8
-425.4
-397.9
-365.2
-329.4
-291.9
-254.6
-218.7
-185.4
-155.5
-129.9
-108.7
-91.8
-78.9
-69.1
-62.1
-56.9
-53.4
-50.6
-48.6
-47.0
-45.9
-44.7
-43.3
-41.6
-39.2
-36.7
-34.2
-32.4
-31.1
-30.5
-30.0
-29.6
-28.8
-27.7
-26.3
-25.1
-23.8
-22.7
-21.8
-21.0
-20.4
-19.9
-19.3
-18.5
-17.6
-16.7
-16.2
-15.9
-15.9
-15.9
-16.0
-16.0
-16.2
-16.0
-15.7
-14.6
-13.4
-11.8
-10.3
-8.7
-7.0
-5.3
-3.6
-1.7
0.3
2.7
5.2
7.6
9.7
11.4
12.8
14.0
15.3
16.7
17.9
19.0
20.2
21.6
23.0
24.3
25.4
26.9
28.8
31.1
33.9
36.7
39.1
40.8
42.0
42.8
43.6
44.2
45.0
45.9
46.5
46.8
46.5
46.2
45.8
45.4
45.3
45.4
45.8
45.8
45.6
45.4
45.0
44.7
44.0
43.3
42.2
40.8
39.4
38.1
36.7
35.5
34.1
32.4
30.7
28.6
26.0
22.7
19.3
15.7
12.5
9.4
6.2
3.3
0.6
-2.0
-4.7
-7.5
-10.3
-12.8
-15.3
-17.9
-20.2
-22.6
-25.1
-27.6
-30.2
-32.5
-34.7
-36.3
-37.7
-38.8
-40.0
-41.2
-42.5
-43.7
-45.1
-46.7
-48.1
-49.5
-50.4
-51.3
-52.4
-53.5
-54.3
-54.5
-54.1
-53.7
-53.2
-53.4
-54.1
-55.2
-56.0
-56.5
-56.3
-55.7
-54.8
-54.1
-54.5
-55.4
-56.5
-57.6
-58.3
-58.7
-59.0
-59.0
-59.1
-59.4
-60.1
-60.5
-60.7
-60.5
-60.2
-60.2
-60.5
-60.8
-61.1
-61.3
-61.0
-60.7
-60.5
-60.4
-60.4
-60.5
-61.0
-61.6
-62.2
-62.4
-61.8
-60.2
-58.5
-56.8
-55.2
-53.7
-52.3
-51.3
-50.6
-50.1
-49.5
-49.0
-48.7
-48.4
-48.2
-48.1
-47.8
-46.8
-45.4
-43.6
-42.3
-41.6
-41.6
-41.9
-42.3
-42.5
-42.2
-41.4
-40.3
-39.4
-38.4
-38.0
-37.7
-37.4
-36.6
-35.6
-34.6
-33.9
-33.6
-33.6
-33.5
-33.0
-32.4
-31.6
-31.3
-31.1
-31.4
-31.8
-32.2
-33.0
-34.2
-35.5
-36.4
-36.7
-36.6
-36.4
-36.1
-35.8
-35.6
-35.3
-34.7
-33.6
-32.2
-31.4
-31.3
-31.9
-32.7
-33.0
-33.0
-33.2
-33.5
-34.1
-34.7
-35.2
-35.5
-35.6
-35.8
-36.0
-36.0
-35.5
-35.0
-34.7
-34.7
-35.0
-35.5
-35.6
-35.5
-35.0
-34.6
-34.1
-33.8
-33.3
-32.8
-32.2
-31.6
-30.8
-29.6
-28.3
-26.8
-25.2
-23.7
-22.0
-19.9
-17.8
-15.3
-12.5
-10.0
-8.1
-7.5
-7.6
-8.1
-8.4
-8.6
-9.0
-10.0
-11.2
-12.6
-13.7
-14.3
-14.2
-13.2
-11.8
-10.4
-9.7
-9.8
-11.4
-14.3
-18.8
-24.9
-31.6
-38.1
-44.0
-49.0
-53.1
-56.2
-58.0
-59.0
-58.8
-58.0
-57.1
-56.2
-55.5
-55.2
-54.6
-54.0
-52.9
-51.7
-50.6
-49.6
-49.3
-49.3
-49.8
-50.3
-50.9
-51.2
-51.0
-50.4
-49.6
-49.2
-49.0
-49.0
-48.6
-47.8
-46.8
-45.9
-45.4
-45.1
-44.8
-44.4
-43.6
-42.0
-38.9
-32.8
-23.4
-9.5
8.4
30.8
57.9
89.9
127.1
168.9
213.6
257.1
293.7
316.5
319.9
300.8
258.2
191.6
103.4
0.8
-106.2
-207.3
-293.7
-359.7
-403.6
-425.7
-428.6
-416.8
-394.9
-366.7
-334.9
-300.6
-265.7
-231.1
-198.2
-167.8
-140.6
-117.1
-97.9
-82.6
-71.3
-63.2
-57.6
-53.2
-49.9
-47.3
-45.4
-44.2
-43.3
-42.3
-41.1
-39.5
-37.5
-35.2
-33.0
-31.0
-29.3
-28.0
-26.8
-25.8
-24.9
-24.1
-23.8
-23.8
-24.1
-24.4
-24.4
-24.0
-23.2
-22.0
-20.6
-19.5
-18.7
-17.9
-17.0
-15.9
-15.1
-14.3
-13.6
-12.9
-12.5
-12.5
-12.6
-12.3
-11.5
-10.4
-9.2
-8.0
-6.9
-5.8
-4.5
-3.1
-1.4
0.3
2.5
4.5
6.2
7.5
8.7
10.0
11.5
13.2
15.1
17.1
19.0
20.9
22.4
24.1
25.8
27.9
30.2
33.0
35.8
38.4
40.6
42.2
43.1
43.4
43.7
44.2
44.8
45.3
45.4
45.1
44.7
44.4
44.0
44.0
44.4
44.8
45.3
45.3
44.7
43.9
43.1
42.5
41.9
41.1
40.2
38.8
36.9
34.7
32.7
30.7
29.0
27.1
25.5
23.7
21.6
19.2
16.5
13.9
11.5
9.5
7.6
5.6
3.4
1.1
-1.1
-3.4
-5.5
-7.5
-9.4
-11.2
-13.6
-16.0
-18.8
-21.5
-24.1
-26.8
-29.3
-31.4
-33.2
-34.4
-35.3
-36.3
-37.0
-38.1
-39.2
-40.5
-41.6
-42.6
-43.6
-44.8
-46.2
-47.5
-48.2
-48.6
-48.9
-49.0
-49.0
-49.2
-49.5
-50.1
-50.6
-50.9
-51.0
-51.0
-51.2
-51.5
-52.4
-53.5
-54.5
-55.1
-55.4
-55.4
-55.5
-55.9
-56.6
-57.3
-57.7
-57.7
-57.4
-56.8
-55.9
-54.8
-53.7
-52.7
-52.1
-51.7
-51.0
-50.7
-50.6
-50.6
-50.9
-51.3
-52.1
-52.6
-52.6
-52.1
-51.3
-50.4
-49.5
-48.6
-47.8
-47.0
-46.1
-45.4
-45.0
-44.7
-44.4
-43.9
-43.3
-42.5
-41.6
-40.5
-39.1
-38.0
-37.2
-36.9
-36.7
-36.6
-36.1
-35.5
-34.7
-33.8
-32.7
-31.8
-30.8
-30.2
-29.7
-29.3
-28.8
-28.3
-27.7
-26.9
-26.5
-26.5
-27.1
-28.0
-29.0
-29.4
-29.4
-29.1
-29.0
-29.1
-29.6
-30.2
-30.5
-30.7
-30.7
-30.7
-30.7
-30.8
-31.0
-30.8
-30.5
-30.4
-30.5
-30.7
-30.7
-30.8
-31.1
-31.8
-32.7
-33.3
-33.5
-32.8
-32.1
-31.3
-30.8
-30.8
-31.3
-32.1
-32.8
-33.5
-33.8
-34.1
-34.4
-34.9
-35.2
-35.2
-35.2
-35.2
-35.3
-35.5
-35.6
-35.8
-36.0
-36.4
-36.9
-37.2
-37.0
-36.4
-35.3
-34.1
-32.8
-31.8
-30.8
-30.0
-29.0
-27.6
-26.0
-24.1
-22.0
-19.6
-17.3
-15.0
-12.6
-10.0
-7.0
-3.8
-1.0
0.5
0.6
-0.2
-1.6
-3.1
-4.2
-4.8
-5.3
-5.6
-6.2
-7.0
-8.1
-8.7
-8.9
-8.7
-8.3
-8.1
-8.4
-9.8
-12.6
-17.3
-23.2
-29.7
-35.6
-40.6
-44.2
-47.0
-49.0
-50.4
-51.2
-51.2
-50.6
-49.5
-48.4
-47.6
-47.5
-47.8
-48.7
-49.6
-50.6
-51.2
-51.7
-51.8
-52.3
-52.7
-53.2
-53.4
-52.9
-52.3
-51.5
-50.9
-50.3
-49.8
-49.8
-49.8
-49.6
-49.0
-48.2
-47.3
-46.8
-46.8
-47.3
-47.8
-47.3
-44.5
-37.7
-26.0
-9.4
11.8
37.5
67.4
101.7
141.1
185.3
231.9
277.0
315.0
338.1
339.8
316.2
265.7
189.0
90.7
-19.6
-131.0
-232.1
-315.1
-375.8
-413.1
-429.3
-427.6
-412.2
-387.3
-356.3
-321.8
-286.2
-251.2
-218.2
-187.9
-160.4
-136.0
-114.8
-97.4
-83.7
-73.7
-66.7
-62.1
-59.0
-57.3
-56.3
-55.7
-54.9
-54.1
-53.4
-52.4
-51.2
-49.8
-48.6
-47.2
-46.1
-45.0
-44.0
-43.1
-42.0
-40.9
-39.8
-38.9
-38.1
-37.7
-37.2
-37.0
-37.0
-36.9
-36.3
-35.5
-34.2
-32.7
-31.3
-30.0
-29.1
-28.2
-27.2
-26.2
-24.8
-23.2
-21.6
-20.1
-18.8
-17.8
-16.8
-15.7
-14.5
-12.9
-11.5
-10.4
-9.5
-8.7
-8.0
-6.9
-5.8
-4.7
-3.4
-2.2
-0.8
0.5
1.6
2.5
3.6
5.0
6.9
9.0
11.2
13.6
15.7
18.1
20.4
23.0
25.8
28.3
30.5
32.2
33.2
33.5
33.8
34.2
35.2
36.1
37.2
38.3
39.2
40.2
40.8
41.4
42.0
42.5
42.8
43.0
42.3
41.2
39.8
38.3
36.7
35.2
33.6
32.2
30.7
28.6
26.6
24.8
23.2
21.3
19.3
17.1
14.8
12.3
9.7
6.7
4.1
1.6
-0.3
-2.2
-4.2
-6.4
-9.0
-12.2
-15.4
-18.7
-22.0
-24.9
-27.6
-30.2
-32.8
-35.6
-38.4
-41.1
-43.1
-45.0
-46.7
-48.1
-49.5
-50.7
-51.5
-52.1
-52.6
-53.1
-53.8
-54.5
-55.2
-55.9
-56.6
-57.1
-57.6
-57.9
-58.0
-58.2
-58.5
-59.4
-60.7
-61.9
-63.0
-63.9
-64.4
-64.7
-64.7
-64.9
-64.7
-64.4
-63.8
-63.0
-62.4
-62.2
-62.7
-63.3
-63.5
-63.3
-63.3
-63.5
-63.9
-64.1
-63.9
-63.3
-62.5
-61.9
-61.6
-61.6
-61.6
-61.8
-61.8
-61.8
-61.6
-61.5
-61.6
-61.8
-61.9
-61.9
-61.6
-61.1
-60.2
-59.1
-57.9
-56.9
-56.2
-55.9
-55.4
-54.9
-54.0
-53.1
-52.1
-51.5
-51.3
-51.2
-51.0
-50.4
-49.6
-48.7
-47.9
-47.5
-47.3
-47.3
-47.2
-46.8
-45.9
-44.8
-43.6
-42.6
-42.2
-42.0
-42.3
-42.5
-42.6
-42.3
-41.6
-40.8
-40.3
-40.3
-40.6
-41.4
-42.2
-42.8
-42.8
-42.6
-42.3
-42.5
-43.1
-44.2
-45.1
-45.8
-45.9
-45.8
-45.9
-46.2
-46.7
-47.2
-47.6
-47.8
-47.5
-46.8
-46.4
-46.4
-46.8
-47.6
-48.7
-49.8
-50.4
-50.6
-50.3
-49.9
-49.8
-49.8
-49.9
-49.9
-49.6
-49.2
-48.4
-47.9
-47.6
-47.5
-47.6
-47.9
-48.1
-48.2
-48.2
-48.1
-47.8
-47.9
-48.4
-49.0
-49.3
-49.5
-49.5
-49.2
-48.7
-47.9
-47.2
-46.2
-45.4
-44.5
-43.0
-41.2
-39.7
-38.3
-37.7
-37.7
-38.1
-38.3
-37.5
-36.0
-33.8
-31.3
-28.6
-25.8
-22.9
-20.2
-17.9
-16.0
-15.0
-14.5
-14.2
-14.3
-15.0
-16.2
-17.6
-18.8
-19.9
-20.4
-20.2
-19.8
-19.0
-18.1
-17.6
-18.1
-19.5
-22.0
-25.8
-31.4
-38.3
-45.3
-51.3
-56.3
-59.9
-62.4
-63.8
-63.9
-63.6
-63.0
-62.9
-62.9
-63.0
-62.9
-62.2
-61.3
-60.4
-59.9
-59.9
-60.4
-61.1
-61.9
-62.5
-62.9
-63.0
-63.3
-63.6
-63.9
-64.3
-64.1
-63.6
-62.9
-61.5
-60.1
-58.8
-58.0
-57.7
-57.7
-57.7
-57.9
-57.9
-57.6
-56.6
-54.6
-49.8
-40.9
-26.9
-7.6
16.7
46.1
80.6
120.7
166.4
216.0
266.4
312.5
346.7
361.6
351.3
312.9
245.4
151.5
38.6
-81.4
-196.0
-294.3
-369.7
-419.6
-445.4
-451.0
-441.1
-419.8
-390.2
-355.5
-318.2
-280.6
-245.0
-212.2
-182.6
-156.6
-134.2
-115.3
-99.4
-87.0
-77.5
-70.9
-66.6
-63.9
-61.9
-60.2
-58.3
-56.3
-54.1
-52.1
-50.4
-49.2
-48.4
-47.9
-47.2
-45.9
-44.2
-42.3
-41.1
-40.3
-40.0
-40.0
-40.0
-39.7
-38.9
-37.7
-36.1
-34.9
-33.8
-33.0
-32.1
-31.0
-29.4
-28.2
-26.9
-26.0
-25.1
-24.3
-23.7
-23.0
-22.3
-21.0
-19.6
-18.1
-16.7
-15.7
-14.6
-13.6
-12.2
-10.6
-8.9
-7.0
-5.2
-3.8
-2.7
-1.4
0.0
1.9
3.9
5.9
8.0
9.7
11.2
12.9
14.8
16.8
19.0
21.0
23.0
25.2
27.1
28.8
30.5
32.4
34.1
35.8
37.4
38.8
40.0
41.4
42.6
43.9
45.0
46.2
47.6
49.0
50.3
51.0
51.5
51.7
51.3
50.6
49.5
48.4
47.6
46.8
45.9
44.7
43.1
41.6
40.2
38.6
36.7
34.2
31.8
29.1
26.6
24.3
22.0
19.5
16.8
14.0
11.1
8.0
4.8
1.6
-1.4
-4.7
-8.1
-11.7
-15.3
-18.5
-21.3
-24.0
-26.3
-28.5
-31.0
-33.5
-36.3
-39.2
-42.0
-44.5
-46.8
-48.7
-50.1
-51.2
-52.0
-52.7
-53.7
-54.6
-55.7
-56.9
-57.9
-58.7
-59.1
-59.4
-59.9
-60.4
-60.8
-61.1
-61.3
-61.3
-61.3
-61.3
-61.5
-62.2
-63.3
-64.6
-65.8
-66.9
-67.7
-67.8
-67.5
-67.1
-66.7
-66.7
-67.1
-67.1
-66.9
-66.6
-66.4
-66.6
-67.2
-68.0
-68.6
-68.9
-68.8
-68.1
-67.4
-66.7
-66.6
-66.6
-66.6
-66.6
-66.3
-65.8
-65.3
-65.3
-65.7
-66.4
-67.4
-68.1
-68.6
-68.9
-68.8
-68.1
-67.1
-65.7
-64.3
-63.3
-62.5
-61.9
-61.1
-60.2
-59.3
-58.5
-58.0
-58.0
-58.3
-58.7
-58.8
-58.5
-57.7
-56.6
-55.7
-54.6
-53.7
-52.9
-51.8
-50.4
-48.7
-47.2
-45.8
-44.8
-44.5
-44.4
-44.2
-43.7
-43.1
-43.0
-43.0
-43.3
-44.0
-44.8
-45.8
-46.4
-46.7
-46.5
-46.2
-45.8
-45.4
-45.4
-45.8
-46.2
-46.5
-46.4
-46.1
-45.6
-45.4
-45.3
-45.3
-45.3
-45.4
-45.4
-45.3
-45.0
-44.7
-44.8
-45.3
-45.9
-46.4
-46.2
-46.2
-46.2
-46.5
-46.8
-47.2
-47.3
-47.5
-47.3
-47.0
-46.8
-46.8
-47.2
-47.9
-48.9
-49.5
-49.9
-49.9
-49.6
-49.0
-48.4
-48.1
-48.1
-48.4
-48.6
-48.2
-47.6
-46.7
-45.6
-44.4
-43.1
-41.9
-40.8
-39.5
-38.4
-37.2
-35.5
-33.3
-31.0
-28.8
-26.6
-24.3
-21.2
-17.8
-14.5
-12.3
-11.2
-11.2
-12.2
-13.4
-14.5
-15.1
-15.6
-16.0
-16.8
-17.9
-19.2
-20.4
-21.5
-22.3
-22.4
-22.4
-22.6
-23.7
-26.6
-31.8
-38.4
-45.4
-51.7
-56.8
-60.7
-63.3
-64.9
-65.8
-66.3
-66.4
-66.3
-65.7
-64.6
-63.2
-61.6
-60.4
-59.1
-58.2
-57.7
-57.7
-58.0
-58.5
-58.5
-58.3
-58.0
-57.9
-58.0
-58.0
-57.9
-57.6
-57.4
-57.3
-57.4
-57.3
-56.8
-55.7
-54.5
-53.1
-51.5
-50.3
-49.3
-48.6
-47.5
-44.7
-38.9
-29.3
-15.1
3.4
26.8
54.9
87.6
125.2
167.2
212.5
257.9
298.0
325.4
333.5
318.5
279.0
214.2
126.2
21.6
-89.1
-194.9
-286.3
-358.0
-407.6
-435.2
-442.5
-433.6
-412.8
-384.0
-350.6
-314.6
-277.9
-242.2
-208.3
-176.9
-148.7
-124.1
-103.3
-86.3
-73.3
-63.8
-56.9
-52.3
-49.0
-46.5
-44.7
-43.1
-41.7
-40.2
-38.8
-37.4
-36.0
-34.2
-32.4
-30.7
-29.1
-27.7
-26.6
-26.0
-25.5
-24.9
-24.3
-23.5
-23.0
-22.9
-23.2
-23.8
-24.6
-24.9
-24.8
-24.0
-23.2
-22.1
-20.7
-19.2
-17.6
-16.5
-15.7
-15.0
-14.0
-12.8
-11.2
-9.8
-8.6
-7.5
-6.4
-5.0
-3.4
-1.6
0.2
1.4
2.4
2.8
3.1
3.8
4.5
5.6
6.7
8.0
9.4
10.9
12.5
13.7
15.3
17.1
19.5
22.1
24.8
27.2
29.9
32.2
34.6
36.6
38.3
40.2
41.7
43.0
43.6
43.7
43.9
44.2
45.1
46.2
47.6
48.7
49.2
49.0
48.7
48.2
47.8
47.3
46.8
46.1
45.1
43.6
42.0
40.5
39.4
38.6
37.8
36.9
35.2
33.3
31.3
29.1
26.6
24.1
21.6
19.2
17.0
14.5
11.8
8.7
5.5
2.4
-0.6
-3.4
-6.1
-8.6
-11.1
-13.7
-16.5
-19.3
-21.8
-24.0
-25.8
-27.6
-29.1
-30.8
-32.4
-33.9
-35.3
-36.4
-36.9
-37.2
-37.5
-38.3
-39.5
-41.2
-43.0
-43.9
-44.5
-45.0
-45.3
-45.8
-46.2
-46.8
-47.5
-47.9
-48.6
-49.3
-50.3
-51.5
-52.9
-54.0
-54.9
-55.7
-56.8
-58.0
-59.3
-60.4
-61.0
-61.1
-61.0
-61.0
-60.7
-60.1
-59.1
-57.9
-56.8
-56.2
-56.2
-56.5
-56.9
-57.6
-58.0
-58.3
-58.5
-58.3
-58.2
-58.0
-57.6
-56.9
-56.2
-55.4
-54.6
-53.8
-53.2
-52.9
-52.9
-53.1
-53.2
-52.9
-52.1
-50.7
-49.3
-47.9
-47.0
-46.7
-46.5
-46.4
-45.9
-45.3
-44.5
-43.9
-43.3
-43.0
-42.6
-42.3
-42.0
-41.7
-40.9
-40.3
-39.5
-38.8
-37.8
-36.7
-35.5
-34.2
-33.0
-31.9
-31.3
-30.8
-30.4
-29.7
-29.1
-29.0
-29.0
-29.0
-29.1
-29.4
-30.2
-31.0
-31.8
-32.1
-32.1
-31.4
-31.0
-30.8
-31.0
-31.3
-31.6
-31.6
-31.3
-31.3
-31.4
-31.8
-32.4
-33.0
-33.6
-33.9
-34.1
-34.4
-34.7
-35.0
-35.2
-35.5
-35.6
-35.6
-35.6
-35.5
-35.5
-35.6
-36.0
-36.7
-37.7
-38.9
-40.2
-41.2
-42.0
-42.5
-42.8
-43.1
-43.7
-44.2
-44.7
-44.8
-44.7
-44.0
-43.0
-41.9
-40.6
-39.4
-38.0
-36.4
-34.7
-33.2
-32.2
-31.6
-31.4
-30.8
-29.6
-27.6
-25.1
-22.1
-18.7
-15.4
-12.5
-10.3
-9.5
-9.8
-10.6
-11.4
-11.8
-12.3
-12.8
-13.4
-14.3
-15.1
-15.7
-15.9
-15.3
-14.2
-12.8
-11.7
-11.2
-11.8
-13.6
-16.7
-21.2
-26.5
-32.1
-37.2
-42.0
-46.1
-49.0
-50.9
-51.7
-51.8
-51.7
-51.2
-50.7
-50.6
-50.7
-51.0
-51.2
-50.9
-50.3
-49.8
-49.3
-49.2
-49.3
-49.8
-50.4
-51.2
-51.8
-52.4
-52.9
-53.4
-53.5
-53.5
-53.2
-52.6
-52.0
-51.0
-50.1
-49.6
-49.5
-49.8
-50.4
-51.2
-51.3
-49.8
-45.4
-37.2
-24.6
-7.5
13.7
39.7
70.6
107.2
148.9
194.3
240.2
281.7
312.3
325.5
316.8
283.9
226.0
144.4
44.5
-63.6
-169.2
-261.9
-335.3
-386.7
-415.7
-424.8
-417.8
-399.3
-373.3
-342.6
-309.2
-274.7
-240.2
-206.9
-175.6
-147.0
-122.0
-101.0
-84.6
-72.5
-63.9
-58.0
-54.5
-52.1
-50.3
-48.6
-46.8
-45.3
-43.6
-42.0
-40.3
-38.4
-36.4
-34.6
-33.2
-32.2
-31.8
-31.4
-31.3
-31.0
-30.5
-29.9
-29.1
-28.6
-28.5
-28.5
-28.5
-28.2
-27.7
-26.9
-26.0
-24.9
-23.8
-22.7
-21.5
-20.2
-19.2
-18.2
-17.1
-16.0
-15.4
-15.0
-14.5
-13.9
-12.9
-12.0
-10.9
-9.8
-8.9
-8.0
-7.3
-6.6
-5.6
-4.5
-2.8
-0.5
2.4
5.3
7.6
9.4
11.1
13.1
15.1
17.1
19.0
20.7
22.6
24.6
26.8
29.3
31.8
34.2
36.4
38.4
40.3
41.7
43.0
44.2
45.8
47.5
49.0
49.9
50.6
51.0
51.7
52.3
52.7
53.1
52.7
52.3
51.5
50.9
50.4
50.1
49.9
49.9
49.8
49.3
48.4
47.0
45.1
43.0
40.8
38.9
37.0
34.9
32.1
29.0
25.7
22.7
19.8
16.8
14.0
11.2
8.4
5.5
2.2
-1.3
-5.0
-8.6
-11.8
-14.8
-17.3
-19.8
-22.6
-25.2
-27.7
-29.9
-31.9
-33.6
-35.0
-36.1
-37.4
-38.9
-40.6
-42.3
-43.7
-44.7
-45.6
-46.7
-47.9
-48.9
-49.8
-50.4
-51.3
-52.1
-52.7
-52.9
-52.9
-52.7
-52.9
-53.4
-54.1
-55.4
-56.6
-57.7
-58.2
-57.9
-56.9
-56.0
-55.5
-55.9
-56.3
-56.6
-56.6
-56.5
-56.2
-56.2
-56.6
-57.4
-58.5
-59.4
-60.1
-60.2
-60.4
-60.4
-60.8
-61.5
-61.9
-62.2
-61.8
-61.0
-59.9
-59.0
-58.3
-58.3
-58.7
-59.1
-59.4
-59.3
-59.0
-58.5
-57.9
-57.1
-56.0
-54.6
-52.9
-51.2
-49.9
-48.9
-47.9
-47.2
-46.5
-46.1
-45.6
-45.0
-44.2
-43.6
-43.0
-42.3
-41.9
-41.4
-40.9
-40.3
-39.5
-38.8
-37.8
-37.0
-36.4
-36.3
-36.7
-37.2
-37.8
-38.1
-38.1
-38.0
-37.4
-36.6
-35.6
-34.9
-34.4
-34.2
-34.2
-34.2
-34.2
-34.4
-34.9
-35.3
-35.8
-36.0
-36.0
-35.6
-35.2
-34.7
-34.4
-34.4
-34.6
-35.0
-35.8
-36.7
-37.5
-37.8
-38.0
-38.0
-37.7
-37.4
-37.0
-36.9
-36.9
-36.9
-36.7
-36.9
-37.5
-38.6
-39.8
-40.9
-41.6
-41.7
-41.7
-41.6
-41.4
-41.1
-40.9
-41.1
-41.4
-41.9
-42.0
-42.0
-41.9
-41.9
-41.9
-42.0
-42.0
-41.9
-41.7
-41.2
-40.9
-40.5
-40.2
-39.7
-38.9
-37.7
-36.1
-34.2
-32.1
-29.6
-27.2
-24.9
-22.7
-20.7
-18.2
-15.4
-12.6
-10.1
-7.5
-4.7
-1.9
0.5
2.2
2.7
2.5
1.9
1.3
0.8
0.0
-1.0
-2.4
-3.9
-5.3
-6.4
-7.0
-7.3
-7.5
-7.8
-8.1
-8.9
-10.3
-12.8
-16.7
-22.1
-28.5
-34.6
-39.8
-43.9
-46.7
-48.4
-49.5
-50.3
-51.0
-51.3
-51.7
-51.7
-51.3
-51.0
-50.7
-50.7
-51.0
-51.5
-52.0
-52.4
-52.6
-52.4
-52.3
-52.1
-52.0
-52.1
-52.3
-52.6
-52.7
-52.9
-52.9
-52.6
-52.1
-51.5
-51.2
-51.0
-51.2
-51.3
-51.3
-51.0
-50.4
-49.0
-46.2
-40.5
-30.2
-14.8
5.2
29.7
59.1
93.5
133.3
178.1
226.0
273.3
314.5
342.6
350.6
333.2
287.9
214.6
117.3
4.7
-111.4
-219.0
-308.6
-375.1
-417.3
-437.0
-438.1
-425.1
-401.9
-371.7
-337.2
-301.0
-264.6
-229.7
-197.7
-168.8
-143.7
-122.6
-105.3
-91.9
-82.0
-74.7
-69.7
-66.3
-63.9
-62.2
-60.7
-59.1
-57.4
-55.4
-53.1
-50.7
-48.2
-46.1
-44.2
-43.0
-41.7
-40.6
-39.5
-38.9
-38.4
-38.1
-38.1
-38.3
-38.6
-38.4
-38.1
-37.2
-36.3
-35.2
-34.2
-33.2
-32.2
-31.1
-30.2
-29.6
-29.0
-28.0
-26.9
-25.4
-23.8
-22.1
-20.2
-18.4
-17.0
-15.9
-15.1
-14.6
-14.2
-13.2
-12.2
-11.1
-9.8
-8.6
-7.5
-6.1
-4.7
-3.0
-1.1
1.0
3.3
5.6
8.1
10.6
12.9
15.4
17.9
20.2
22.7
25.2
27.4
29.1
31.0
32.7
34.4
36.3
38.1
40.3
42.6
45.1
47.3
49.0
50.6
51.8
53.1
54.3
55.5
56.5
56.9
56.8
56.6
56.2
55.5
54.8
53.5
52.3
50.7
49.0
47.5
45.8
44.4
43.0
41.6
40.2
38.4
36.3
33.9
31.3
28.6
25.8
23.2
20.6
17.9
14.6
11.1
7.2
3.4
0.0
-3.1
-6.1
-9.0
-12.3
-15.9
-19.5
-22.9
-25.7
-27.9
-29.9
-31.9
-33.9
-36.1
-38.4
-40.8
-42.8
-44.2
-45.1
-45.6
-45.8
-45.9
-46.5
-47.6
-49.3
-51.2
-52.9
-54.1
-54.9
-55.2
-55.5
-56.2
-56.6
-57.3
-57.7
-58.0
-58.3
-58.5
-58.8
-59.0
-59.1
-59.3
-59.1
-59.0
-58.8
-58.7
-58.5
-58.7
-58.8
-59.1
-59.4
-59.4
-59.3
-59.1
-58.7
-58.3
-58.0
-57.9
-57.9
-58.0
-57.9
-57.3
-56.6
-56.3
-56.3
-56.9
-57.6
-58.2
-58.3
-58.0
-57.7
-57.6
-57.4
-57.4
-57.3
-56.9
-56.6
-56.2
-55.7
-55.2
-54.6
-54.0
-53.4
-52.6
-51.7
-50.1
-48.4
-46.4
-44.8
-43.7
-43.7
-44.2
-44.8
-45.3
-45.4
-45.3
-45.0
-44.5
-43.9
-43.1
-42.2
-41.6
-41.1
-40.8
-40.6
-40.2
-39.5
-39.1
-38.8
-38.8
-38.9
-38.9
-38.8
-38.6
-38.6
-38.9
-39.5
-40.3
-41.1
-41.7
-42.2
-42.6
-43.0
-43.3
-43.4
-43.6
-43.6
-43.6
-43.4
-43.1
-42.5
-42.2
-42.0
-42.0
-42.2
-42.3
-42.6
-43.0
-43.3
-43.3
-43.1
-42.8
-43.0
-43.6
-44.7
-45.4
-45.8
-45.6
-45.3
-45.0
-45.1
-45.3
-45.6
-45.6
-45.6
-45.9
-46.1
-46.2
-46.2
-46.4
-46.7
-46.8
-47.2
-47.3
-47.6
-47.9
-48.6
-49.3
-50.1
-50.6
-50.6
-50.3
-49.6
-48.7
-47.6
-46.5
-45.4
-44.5
-43.7
-42.8
-42.0
-40.9
-39.5
-38.0
-36.4
-34.7
-33.2
-31.3
-29.0
-26.5
-24.0
-21.5
-19.0
-16.4
-13.9
-12.2
-11.5
-11.8
-12.8
-14.2
-15.6
-17.1
-19.0
-20.7
-22.3
-23.2
-23.7
-23.5
-22.7
-21.5
-20.1
-19.0
-18.5
-18.5
-19.6
-22.0
-26.0
-31.8
-38.3
-44.5
-49.9
-54.5
-57.7
-60.1
-61.3
-61.6
-61.6
-61.1
-60.5
-59.7
-58.8
-58.2
-57.9
-57.6
-57.6
-58.0
-58.8
-59.7
-60.7
-61.3
-61.5
-61.1
-60.7
-60.4
-60.1
-60.1
-59.9
-59.6
-59.3
-59.1
-59.0
-59.1
-59.3
-59.7
-60.4
-61.0
-61.5
-61.5
-60.8
-59.1
-55.9
-49.9
-40.0
-25.5
-5.9
18.4
47.8
82.6
123.2
168.9
218.2
267.7
312.5
345.9
360.4
350.1
311.7
244.2
149.8
36.4
-84.3
-199.9
-299.4
-376.5
-428.5
-455.9
-462.2
-452.1
-430.2
-400.5
-365.8
-328.3
-290.2
-252.9
-218.1
-186.5
-158.5
-134.6
-114.6
-98.5
-86.0
-76.5
-69.7
-65.0
-61.8
-59.3
-57.6
-56.3
-55.2
-54.3
-52.9
-51.0
-49.3
-47.8
-46.4
-45.1
-44.0
-42.6
-41.4
-40.3
-39.5
-39.2
-39.2
-39.2
-38.9
-38.0
-36.9
-35.8
-34.7
-33.8
-33.0
-32.4
-31.9
-31.1
-30.0
-29.0
-28.0
-27.4
-26.8
-26.0
-25.1
-23.7
-22.1
-20.2
-18.7
-17.3
-16.2
-15.4
-14.6
-13.7
-12.8
-11.7
-10.1
-8.4
-6.6
-4.8
-3.1
-1.3
0.8
3.1
5.5
7.5
9.4
11.1
13.1
15.3
17.9
20.6
23.0
25.4
27.2
29.0
30.5
32.4
34.6
37.0
39.2
40.9
42.3
43.7
44.8
45.6
46.4
47.2
48.1
48.7
49.0
49.2
48.7
48.1
47.2
46.1
45.3
45.0
45.1
45.4
45.4
44.7
43.3
41.1
38.8
36.6
34.9
33.5
32.2
30.7
29.0
26.8
24.1
21.3
18.2
15.1
11.8
8.4
5.0
1.4
-2.2
-5.6
-8.7
-11.5
-14.2
-16.7
-19.5
-22.3
-25.4
-28.3
-31.3
-34.1
-36.4
-38.3
-40.0
-41.4
-42.6
-43.7
-45.0
-46.1
-47.2
-47.9
-48.7
-49.6
-50.9
-52.3
-53.8
-55.1
-56.2
-56.8
-57.1
-57.1
-57.3
-57.6
-58.2
-58.7
-58.8
-58.8
-58.5
-58.3
-58.5
-59.0
-59.7
-60.4
-60.8
-61.3
-61.6
-61.6
-61.5
-61.5
-61.6
-62.1
-62.1
-61.9
-61.5
-61.1
-61.0
-60.8
-60.7
-60.5
-60.7
-60.7
-60.7
-60.5
-59.9
-59.3
-58.5
-58.0
-57.9
-57.9
-57.9
-58.0
-57.7
-57.3
-56.6
-56.2
-55.7
-55.4
-54.8
-54.0
-53.1
-52.0
-51.2
-50.6
-49.9
-49.5
-49.2
-48.7
-48.1
-47.2
-45.6
-43.9
-42.5
-41.6
-40.8
-40.0
-39.1
-38.0
-37.0
-36.1
-35.3
-34.9
-34.6
-34.4
-34.1
-33.9
-33.9
-33.9
-34.1
-34.2
-34.4
-34.7
-35.2
-36.0
-36.7
-37.4
-38.0
-38.4
-38.4
-38.1
-37.7
-37.0
-36.7
-36.7
-36.7
-37.0
-37.8
-38.6
-39.4
-39.8
-40.3
-40.6
-41.1
-41.4
-41.7
-42.2
-42.5
-42.6
-42.2
-41.6
-40.6
-39.8
-39.7
-40.0
-40.8
-41.6
-42.0
-41.7
-41.1
-40.2
-39.7
-39.5
-39.5
-39.8
-40.0
-40.2
-40.3
-40.6
-40.9
-41.4
-42.0
-42.8
-43.4
-43.7
-43.9
-43.7
-43.6
-43.1
-42.8
-42.5
-42.3
-42.3
-42.2
-41.9
-41.2
-40.2
-38.9
-37.8
-36.6
-35.2
-33.6
-32.2
-30.7
-28.8
-26.5
-24.1
-22.0
-19.8
-17.3
-14.3
-10.8
-7.2
-4.5
-3.4
-3.9
-5.5
-7.8
-9.8
-11.5
-12.5
-12.6
-12.6
-12.8
-13.1
-13.4
-13.9
-14.0
-14.0
-14.3
-15.1
-17.0
-20.9
-26.5
-33.2
-39.7
-45.3
-49.5
-52.3
-53.8
-54.9
-55.7
-56.2
-56.2
-55.9
-55.1
-54.3
-53.4
-52.7
-52.3
-51.8
-51.3
-50.6
-49.9
-49.3
-49.2
-49.2
-49.2
-49.3
-49.8
-50.3
-50.6
-50.7
-50.6
-50.1
-49.5
-49.0
-48.7
-48.4
-47.9
-47.2
-46.2
-45.3
-44.5
-43.9
-43.4
-42.5
-40.3
-35.5
-26.9
-14.2
2.8
24.1
49.9
80.4
116.2
157.1
202.0
248.4
291.3
323.5
338.0
330.0
297.7
240.2
158.2
57.4
-52.7
-160.8
-256.8
-334.2
-390.1
-423.5
-435.8
-430.8
-413.1
-387.1
-356.0
-321.8
-286.0
-250.3
-215.6
-182.9
-153.2
-127.1
-105.0
-87.3
-73.9
-63.9
-56.8
-51.5
-47.3
-44.2
-41.7
-39.4
-37.2
-35.5
-34.4
-33.8
-33.5
-33.0
-32.1
-30.7
-29.1
-27.6
-26.3
-25.7
-25.2
-24.6
-23.8
-23.0
-22.1
-21.2
-20.4
-19.5
-18.7
-17.9
-17.4
-17.1
-16.8
-16.4
-15.7
-14.8
-13.6
-12.3
-10.8
-9.4
-7.8
-6.1
-4.7
-3.4
-2.5
-1.6
-0.6
0.6
2.0
3.4
4.8
6.2
7.2
7.8
8.3
8.9
10.0
11.8
14.2
16.7
18.8
20.9
22.9
24.8
26.6
28.8
31.1
33.6
36.1
38.1
39.7
40.9
42.0
43.6
45.6
47.9
50.3
52.1
53.5
54.8
55.7
56.6
57.3
57.9
58.2
58.5
58.7
59.1
59.7
60.5
61.0
61.1
61.0
60.4
59.4
58.2
56.6
55.1
53.2
51.3
49.6
47.9
46.1
43.7
41.1
38.4
35.5
32.7
30.0
27.4
24.8
22.1
19.5
16.4
13.1
9.5
5.9
2.4
-1.0
-4.2
-7.3
-10.3
-13.1
-15.9
-18.5
-21.2
-23.5
-25.8
-27.9
-29.9
-31.9
-33.8
-35.6
-37.2
-38.4
-39.5
-40.6
-41.7
-43.0
-44.0
-45.1
-46.2
-47.3
-48.6
-49.6
-50.6
-51.5
-52.1
-52.4
-52.3
-52.3
-52.3
-52.7
-53.4
-54.3
-55.5
-56.6
-57.7
-58.7
-59.4
-59.9
-60.4
-61.0
-62.1
-63.6
-65.0
-66.1
-66.6
-66.6
-66.4
-66.3
-66.6
-67.1
-67.4
-67.1
-66.4
-65.3
-63.9
-62.5
-61.3
-60.4
-60.2
-60.4
-60.5
-60.5
-60.1
-59.4
-59.1
-59.0
-59.0
-59.1
-59.1
-59.0
-58.5
-57.4
-56.0
-54.6
-53.7
-53.2
-52.9
-52.6
-52.1
-51.2
-49.8
-48.6
-47.6
-46.8
-46.1
-45.0
-43.6
-41.9
-40.2
-38.4
-36.9
-35.8
-35.0
-34.4
-33.6
-32.7
-31.8
-31.0
-30.5
-30.0
-29.9
-29.7
-29.4
-29.0
-28.2
-27.2
-26.0
-25.1
-24.4
-24.3
-24.4
-24.9
-25.2
-25.4
-25.5
-25.7
-26.2
-26.5
-26.5
-26.0
-25.5
-25.1
-24.8
-24.9
-25.7
-26.6
-27.6
-28.6
-29.3
-29.7
-29.9
-29.9
-30.2
-30.8
-31.8
-32.7
-33.6
-34.1
-33.9
-33.5
-32.8
-32.4
-32.2
-32.4
-32.7
-33.2
-33.8
-34.4
-34.9
-35.3
-35.6
-36.0
-36.3
-36.6
-36.9
-37.0
-37.0
-37.2
-37.5
-37.7
-37.8
-38.0
-37.8
-37.5
-36.9
-36.3
-35.6
-35.3
-35.6
-36.6
-37.5
-38.3
-38.4
-38.0
-37.2
-36.6
-36.0
-35.3
-34.6
-33.6
-32.4
-30.7
-28.6
-26.5
-24.1
-21.8
-19.5
-16.7
-13.4
-10.0
-6.7
-4.2
-2.8
-2.7
-3.1
-3.9
-4.7
-5.5
-6.2
-7.0
-8.1
-9.2
-10.4
-11.5
-12.0
-11.7
-10.8
-9.7
-8.9
-9.4
-11.2
-15.3
-21.2
-28.3
-35.5
-42.0
-47.5
-51.7
-54.8
-56.8
-57.7
-57.6
-56.6
-55.1
-53.7
-52.6
-52.0
-51.5
-51.2
-51.0
-50.7
-50.1
-49.5
-48.9
-48.7
-48.9
-49.3
-50.3
-51.0
-51.5
-51.5
-51.0
-50.3
-49.3
-48.6
-48.1
-48.1
-48.2
-48.9
-49.3
-49.6
-49.9
-50.1
-50.1
-49.6
-47.6
-42.5
-33.0
-18.8
0.0
23.5
51.5
83.9
121.2
163.3
209.2
256.0
299.3
332.5
348.4
341.4
308.7
249.3
165.0
61.6
-50.7
-160.7
-257.6
-334.4
-388.1
-418.1
-427.2
-419.8
-400.5
-373.3
-341.1
-306.4
-271.1
-236.9
-204.2
-173.9
-146.4
-122.6
-102.7
-86.8
-74.7
-66.1
-60.1
-56.3
-54.1
-52.9
-52.4
-52.3
-52.4
-52.4
-52.3
-51.7
-50.4
-48.6
-46.4
-43.6
-41.1
-38.8
-37.0
-35.8
-34.9
-33.9
-33.2
-32.4
-31.6
-31.0
-30.5
-30.2
-29.6
-28.6
-27.4
-26.0
-24.6
-23.4
-22.6
-22.1
-22.0
-21.6
-21.0
-20.1
-19.2
-18.1
-17.3
-16.7
-15.9
-14.6
-12.8
-10.4
-8.0
-5.8
-4.1
-2.8
-1.6
-0.3
0.8
2.2
3.4
4.8
6.1
7.3
8.3
9.4
10.8
12.3
14.2
16.4
18.5
20.6
22.3
23.7
25.1
26.6
28.6
30.8
33.0
35.2
37.2
39.4
41.9
44.5
47.0
49.2
50.6
51.2
51.5
52.0
52.4
53.1
53.5
54.0
54.5
54.9
55.1
54.8
54.0
52.9
51.8
50.7
49.8
48.7
47.5
46.1
44.2
42.2
40.0
38.0
36.0
34.2
32.5
30.5
27.7
24.3
20.4
16.5
12.6
9.2
6.1
3.1
0.0
-3.3
-7.2
-10.9
-14.3
-17.6
-20.6
-23.5
-26.2
-28.8
-31.1
-33.6
-36.0
-38.3
-40.6
-42.8
-44.5
-46.1
-47.6
-49.3
-51.2
-52.9
-54.0
-54.6
-54.9
-54.9
-55.1
-55.4
-55.4
-55.4
-55.4
-55.4
-55.5
-56.0
-56.8
-57.9
-59.0
-59.9
-60.5
-60.8
-61.3
-61.6
-61.9
-62.4
-63.5
-64.9
-66.4
-67.5
-68.3
-68.3
-68.1
-67.8
-67.8
-68.0
-68.3
-68.6
-68.6
-68.5
-68.0
-67.5
-67.1
-66.9
-66.6
-66.4
-66.0
-65.3
-64.7
-63.9
-63.3
-63.2
-63.2
-63.5
-63.5
-62.7
-61.6
-60.5
-59.6
-58.8
-58.2
-57.9
-57.6
-57.3
-56.6
-55.5
-54.1
-52.4
-50.7
-49.2
-47.8
-46.4
-45.1
-44.0
-43.1
-42.5
-42.3
-42.5
-43.0
-43.1
-43.1
-43.0
-42.5
-41.9
-41.2
-40.8
-40.6
-40.6
-40.6
-40.6
-40.6
-40.5
-40.2
-40.2
-40.3
-40.5
-40.6
-40.3
-39.7
-38.8
-37.7
-36.9
-36.4
-36.3
-36.1
-36.3
-36.3
-36.6
-37.0
-37.4
-37.5
-37.7
-38.0
-38.8
-39.7
-40.5
-40.9
-40.9
-40.9
-41.4
-42.3
-43.4
-44.4
-45.0
-45.1
-45.3
-45.3
-45.4
-45.8
-46.4
-46.7
-47.0
-47.2
-47.2
-46.8
-46.4
-46.1
-45.8
-45.6
-45.3
-44.8
-43.9
-42.8
-41.9
-41.2
-40.8
-40.8
-40.8
-40.8
-40.6
-40.3
-40.0
-39.7
-39.8
-40.8
-42.2
-43.6
-44.4
-44.5
-44.0
-43.4
-42.6
-42.0
-41.6
-41.1
-40.6
-40.5
-40.6
-40.9
-41.1
-41.2
-41.1
-40.6
-39.8
-38.9
-37.5
-36.1
-34.7
-33.3
-32.2
-31.6
-31.3
-30.5
-29.1
-26.8
-24.0
-21.0
-17.8
-14.6
-11.7
-9.0
-7.2
-6.1
-5.9
-6.6
-7.6
-8.9
-10.4
-12.0
-13.4
-14.2
-14.6
-14.3
-13.6
-12.5
-11.5
-10.4
-9.7
-9.5
-10.1
-12.0
-15.9
-21.5
-28.3
-35.3
-41.7
-46.7
-50.3
-52.9
-54.6
-56.0
-56.9
-57.4
-57.6
-57.1
-56.0
-54.6
-53.2
-51.7
-50.7
-50.3
-50.4
-51.0
-51.8
-52.3
-52.3
-52.3
-52.0
-51.7
-51.3
-50.9
-50.4
-49.6
-48.9
-48.1
-47.6
-47.6
-47.8
-48.2
-48.7
-49.0
-49.2
-49.0
-49.0
-48.9
-48.4
-47.3
-44.0
-37.4
-26.0
-9.5
12.0
38.4
69.5
105.3
146.1
191.5
240.0
288.2
330.5
360.1
369.2
352.9
308.4
235.5
137.4
22.9
-95.7
-206.4
-299.1
-368.6
-413.2
-435.0
-437.5
-425.4
-402.7
-372.5
-337.8
-301.0
-264.3
-229.4
-197.2
-168.3
-143.0
-121.3
-103.4
-89.5
-78.9
-71.4
-66.4
-63.0
-60.4
-58.2
-56.2
-54.6
-53.4
-52.4
-51.8
-51.2
-50.6
-49.9
-49.2
-48.2
-46.8
-45.1
-43.6
-42.3
-41.1
-40.2
-39.4
-38.8
-38.0
-37.0
-36.1
-35.3
-34.9
-34.4
-33.8
-32.8
-31.6
-30.2
-28.6
-27.4
-26.3
-25.4
-24.4
-23.4
-22.6
-21.8
-21.0
-20.2
-19.6
-19.2
-18.5
-17.6
-15.9
-13.9
-11.5
-9.2
-7.3
-5.8
-4.2
-2.5
-0.3
1.7
4.1
6.7
9.0
11.1
12.8
14.2
15.9
17.9
20.1
22.3
24.3
26.2
27.9
29.6
31.4
33.5
35.8
38.3
40.6
42.6
44.2
45.3
46.1
46.5
47.0
47.6
48.4
48.9
48.9
48.7
48.4
48.1
48.1
48.1
48.4
48.6
48.6
48.1
47.2
46.1
45.0
43.9
43.0
42.0
40.8
38.9
36.6
34.2
32.2
30.2
28.2
25.8
23.2
20.2
16.8
12.9
9.2
5.5
2.2
-0.5
-3.3
-6.6
-10.0
-13.6
-17.1
-20.4
-23.5
-26.2
-28.6
-31.1
-33.6
-36.1
-38.6
-40.6
-42.3
-43.6
-44.7
-45.8
-47.0
-48.6
-50.4
-52.3
-54.1
-55.5
-56.5
-57.1
-57.6
-58.0
-58.7
-59.1
-59.4
-59.7
-60.1
-60.5
-60.8
-61.5
-62.1
-62.9
-63.5
-63.8
-64.1
-64.1
-64.3
-64.6
-65.0
-65.3
-66.0
-66.6
-67.4
-67.8
-67.8
-67.7
-67.2
-67.1
-67.4
-68.0
-68.6
-68.9
-68.8
-68.6
-68.3
-68.0
-67.8
-67.5
-67.4
-67.1
-66.7
-66.6
-66.4
-66.4
-66.6
-66.7
-67.1
-67.2
-67.1
-66.9
-66.6
-66.3
-65.8
-65.0
-64.3
-63.3
-62.2
-61.1
-60.2
-59.3
-58.3
-57.1
-55.7
-54.1
-52.7
-51.7
-50.7
-49.6
-48.6
-47.5
-46.7
-46.2
-46.2
-46.2
-46.2
-46.1
-45.9
-45.8
-45.4
-45.1
-45.0
-44.8
-44.8
-44.7
-44.2
-43.6
-42.6
-42.0
-41.7
-41.6
-41.4
-41.2
-40.9
-40.6
-40.2
-39.8
-40.0
-40.3
-40.8
-40.8
-40.3
-40.0
-39.7
-39.7
-40.0
-40.5
-40.8
-41.1
-41.1
-41.2
-41.4
-41.6
-42.0
-42.5
-43.0
-43.3
-43.3
-43.0
-42.5
-41.9
-41.1
-40.6
-40.6
-41.1
-41.9
-42.3
-42.6
-42.6
-42.2
-41.7
-41.4
-41.2
-41.2
-41.1
-40.8
-40.3
-40.0
-40.0
-40.6
-41.6
-42.3
-43.0
-43.0
-42.8
-42.5
-42.3
-42.5
-42.8
-43.1
-43.3
-43.1
-43.0
-42.6
-42.2
-41.7
-41.6
-41.9
-42.5
-43.3
-44.0
-44.8
-45.4
-45.8
-45.8
-45.8
-45.8
-45.9
-46.1
-46.4
-46.5
-46.5
-46.4
-46.2
-46.2
-46.4
-46.1
-45.1
-43.6
-41.6
-39.7
-38.3
-37.5
-37.0
-36.6
-35.6
-34.4
-32.7
-30.4
-28.0
-25.5
-23.2
-20.4
-17.3
-13.9
-11.1
-9.4
-8.6
-9.0
-10.4
-12.0
-13.4
-14.5
-15.4
-15.9
-16.2
-16.4
-16.4
-16.2
-16.0
-15.7
-15.1
-14.5
-14.0
-14.6
-17.1
-22.1
-29.1
-36.7
-43.7
-49.6
-54.0
-57.1
-58.8
-59.7
-60.1
-59.9
-59.6
-59.0
-58.0
-57.4
-57.1
-57.1
-57.1
-56.8
-56.0
-54.6
-53.1
-51.8
-50.9
-50.4
-50.3
-50.6
-51.5
-52.9
-54.6
-56.2
-57.3
-57.9
-57.7
-57.4
-57.1
-56.6
-56.3
-55.9
-55.2
-54.5
-53.7
-53.1
-52.9
-53.1
-53.1
-51.8
-47.8
-40.2
-27.9
-10.8
11.1
37.7
69.4
106.2
148.7
196.3
247.2
297.4
341.1
370.9
379.7
362.4
317.0
242.5
142.5
25.4
-96.6
-211.1
-308.0
-381.4
-429.1
-452.7
-455.9
-443.3
-419.3
-387.6
-351.2
-312.5
-273.7
-236.4
-202.0
-171.6
-145.1
-122.9
-104.7
-90.5
-79.7
-71.7
-66.0
-61.9
-58.8
-56.3
-54.3
-52.6
-51.2
-49.8
-48.4
-47.2
-46.2
-45.4
-44.5
-43.6
-42.6
-41.7
-40.8
-39.7
-38.4
-37.2
-36.3
-35.3
-34.9
-34.7
-34.6
-34.4
-34.1
-33.3
-32.4
-30.8
-29.4
-28.0
-26.9
-26.0
-25.2
-24.4
-24.0
-23.5
-22.9
-22.0
-21.2
-20.4
-19.6
-18.5
-17.3
-15.7
-14.2
-12.8
-11.8
-11.1
-10.1
-8.7
-7.2
-5.2
-2.8
-0.5
1.9
4.4
6.7
9.2
12.0
14.8
17.6
20.1
22.1
23.8
25.4
26.9
28.6
30.4
31.9
33.6
35.3
37.0
38.8
40.5
42.2
44.2
46.4
48.4
50.3
52.0
53.5
54.9
55.9
56.8
57.7
58.5
59.0
59.4
59.4
59.0
58.2
57.4
56.5
55.7
55.2
54.9
54.3
53.2
51.3
49.0
46.5
44.2
42.3
40.8
39.4
37.8
36.0
33.9
31.4
28.6
25.4
22.1
18.8
15.7
12.5
9.2
5.9
2.5
-0.8
-3.9
-6.9
-9.5
-12.2
-15.1
-18.1
-21.2
-24.0
-26.6
-29.0
-31.1
-33.5
-35.8
-38.0
-40.0
-41.6
-42.5
-43.3
-43.7
-44.4
-45.1
-46.1
-47.3
-48.6
-49.6
-50.6
-51.2
-51.5
-51.5
-51.2
-51.2
-51.3
-51.3
-51.0
-50.4
-49.9
-49.6
-50.1
-50.9
-52.0
-53.2
-54.1
-55.1
-55.7
-56.0
-56.0
-56.0
-56.0
-56.0
-56.0
-56.3
-56.5
-56.6
-56.6
-56.8
-57.3
-57.6
-57.9
-57.6
-57.1
-56.5
-55.9
-55.5
-55.5
-55.4
-55.1
-54.3
-53.1
-51.8
-50.7
-49.9
-49.5
-49.2
-48.9
-48.6
-48.1
-47.5
-46.7
-46.1
-45.4
-45.0
-44.7
-44.4
-43.7
-43.1
-42.5
-42.0
-41.7
-41.7
-41.9
-42.0
-42.0
-41.2
-40.0
-38.6
-37.4
-36.3
-35.3
-34.2
-33.2
-31.8
-30.4
-29.1
-28.3
-27.9
-27.6
-27.6
-27.7
-28.0
-28.5
-29.0
-29.6
-30.2
-31.3
-32.4
-33.3
-34.1
-34.6
-35.0
-35.3
-35.8
-36.1
-36.4
-37.0
-37.5
-37.8
-37.5
-36.9
-36.3
-35.8
-36.0
-36.4
-37.2
-38.3
-39.4
-40.2
-40.3
-40.0
-39.7
-39.7
-40.0
-40.6
-41.4
-42.2
-42.6
-42.5
-42.0
-41.4
-40.8
-40.0
-39.5
-39.2
-39.2
-38.9
-38.6
-38.1
-37.8
-37.8
-38.1
-38.6
-39.1
-39.8
-40.6
-41.4
-41.9
-42.2
-42.3
-42.3
-42.2
-41.9
-41.7
-41.4
-41.2
-41.1
-41.2
-41.6
-42.0
-42.5
-43.1
-43.9
-44.7
-45.1
-45.4
-45.3
-44.8
-43.9
-42.8
-42.2
-41.7
-41.6
-41.6
-42.0
-42.5
-42.8
-42.6
-42.2
-41.2
-39.7
-38.0
-36.3
-34.9
-33.6
-31.9
-29.6
-27.2
-24.8
-22.3
-19.3
-16.4
-13.9
-12.5
-12.3
-12.9
-13.9
-14.6
-15.1
-15.7
-16.5
-17.4
-18.2
-18.7
-19.0
-19.3
-19.6
-20.2
-20.6
-21.0
-21.6
-22.6
-24.3
-27.1
-31.6
-37.0
-43.0
-48.4
-53.1
-56.5
-59.0
-60.2
-60.5
-60.2
-59.4
-58.5
-57.6
-56.6
-56.0
-55.7
-55.7
-55.7
-55.9
-56.2
-56.8
-57.3
-57.4
-57.4
-57.4
-57.6
-57.9
-58.3
-59.3
-60.4
-61.3
-61.6
-61.3
-60.4
-59.1
-57.9
-56.9
-56.3
-56.0
-55.9
-55.5
-54.9
-54.5
-54.0
-54.0
-54.0
-52.9
-49.8
-43.1
-31.8
-15.6
5.3
31.1
61.5
96.6
136.9
182.0
230.4
277.9
318.2
343.4
347.0
325.8
278.4
204.5
107.2
-5.2
-121.5
-230.4
-322.7
-394.0
-441.7
-466.4
-470.8
-459.0
-436.0
-405.8
-370.9
-333.8
-295.8
-258.5
-223.2
-190.7
-161.8
-137.0
-116.7
-100.3
-88.1
-79.0
-72.7
-68.0
-64.6
-62.2
-60.7
-59.7
-59.0
-58.0
-57.3
-56.3
-55.5
-54.1
-52.4
-50.3
-47.9
-45.9
-44.7
-43.7
-42.8
-41.6
-40.2
-38.8
-37.5
-36.7
-36.6
-36.9
-37.0
-37.0
-36.6
-35.8
-34.9
-34.2
-33.8
-33.3
-32.5
-31.3
-29.4
-27.4
-25.4
-24.0
-23.0
-22.4
-22.0
-21.3
-20.1
-18.4
-16.4
-14.2
-12.2
-10.3
-8.6
-7.0
-5.5
-3.9
-2.0
-0.2
1.6
3.3
5.0
6.7
8.3
9.7
11.1
12.6
14.8
17.4
20.1
22.4
24.4
26.2
28.0
30.0
32.4
34.9
37.7
40.2
41.9
43.1
43.9
44.8
45.8
46.5
46.5
45.8
44.4
43.3
42.8
43.0
43.3
43.6
43.4
43.3
42.6
42.0
41.2
40.6
40.0
39.5
38.8
37.8
36.6
34.7
32.5
30.2
28.0
25.8
24.0
22.1
19.8
16.7
13.1
9.2
5.2
1.1
-2.7
-6.2
-9.2
-11.8
-14.5
-17.3
-20.1
-22.7
-24.8
-26.6
-28.5
-30.5
-32.8
-35.5
-38.4
-40.9
-43.0
-44.4
-45.3
-46.1
-47.0
-48.1
-49.0
-49.6
-50.1
-50.3
-50.6
-50.9
-51.3
-52.1
-53.2
-54.8
-56.3
-57.4
-57.9
-57.9
-58.2
-58.7
-59.3
-60.2
-61.1
-61.9
-62.5
-62.9
-63.2
-63.8
-64.9
-66.3
-67.8
-69.2
-70.0
-70.3
-70.6
-70.9
-71.3
-71.4
-71.4
-71.1
-70.3
-69.5
-68.9
-68.6
-68.6
-68.8
-69.2
-69.7
-70.0
-70.0
-69.4
-68.1
-66.7
-65.3
-64.3
-63.3
-62.5
-61.8
-60.8
-59.7
-58.8
-57.7
-56.8
-56.3
-56.2
-56.3
-56.5
-56.5
-56.2
-55.4
-54.1
-52.9
-52.0
-51.5
-51.2
-50.9
-50.6
-50.1
-49.3
-48.7
-47.8
-46.7
-45.4
-44.5
-43.7
-43.3
-42.8
-42.3
-42.0
-42.0
-42.3
-42.5
-42.2
-41.7
-41.1
-40.3
-39.7
-39.4
-39.2
-39.1
-38.8
-38.3
-37.5
-36.6
-36.0
-35.8
-36.0
-36.4
-37.0
-37.7
-38.1
-38.4
-38.8
-39.4
-40.5
-41.4
-42.2
-42.2
-41.7
-40.9
-40.5
-40.3
-40.2
-40.2
-40.0
-39.8
-39.4
-38.8
-38.4
-38.4
-38.6
-39.1
-39.7
-40.3
-40.9
-41.7
-42.8
-43.7
-44.5
-45.1
-45.9
-46.8
-47.9
-48.4
-48.2
-47.9
-47.3
-46.8
-46.5
-46.5
-46.5
-46.7
-46.7
-46.4
-45.9
-45.3
-44.7
-44.5
-44.8
-45.0
-44.8
-44.7
-44.5
-44.8
-45.4
-46.1
-46.5
-47.0
-47.3
-47.3
-47.2
-46.5
-45.8
-44.5
-42.8
-40.8
-38.3
-35.3
-32.1
-28.2
-24.3
-20.6
-17.6
-15.7
-14.8
-15.0
-15.9
-16.7
-17.1
-17.3
-17.6
-18.4
-19.3
-20.2
-20.9
-20.9
-20.4
-19.9
-19.5
-19.5
-20.2
-21.6
-23.7
-26.9
-31.4
-36.9
-42.8
-48.2
-53.1
-56.9
-59.7
-61.3
-61.9
-62.1
-61.8
-61.6
-61.8
-61.9
-61.8
-61.3
-60.5
-59.6
-58.5
-57.7
-57.4
-57.6
-57.9
-58.7
-59.3
-59.3
-58.8
-57.9
-56.9
-56.3
-56.2
-56.5
-57.1
-57.4
-57.4
-57.1
-56.3
-55.7
-55.1
-54.5
-53.8
-52.9
-52.1
-51.3
-50.4
-48.7
-45.1
-38.8
-28.5
-13.9
5.0
28.8
57.1
90.2
128.3
170.6
215.6
259.7
297.2
320.9
324.6
305.2
261.1
191.9
100.5
-5.8
-116.2
-219.5
-307.0
-373.6
-417.6
-439.5
-442.3
-430.7
-409.0
-380.7
-348.2
-313.2
-277.2
-241.4
-207.6
-176.9
-149.6
-126.3
-106.9
-91.5
-79.8
-71.4
-65.8
-62.2
-60.2
-59.0
-57.9
-56.8
-55.4
-53.5
-51.3
-48.9
-46.2
-44.0
-42.0
-40.2
-38.6
-37.4
-36.4
-36.1
-36.0
-35.8
-35.5
-34.7
-33.6
-32.2
-30.7
-29.6
-28.6
-27.9
-27.1
-26.2
-24.9
-23.5
-21.8
-20.1
-18.2
-17.0
-16.4
-16.4
-16.4
-16.4
-16.0
-15.4
-14.6
-13.6
-12.3
-10.9
-9.5
-8.1
-6.6
-5.0
-3.4
-2.4
-1.3
-0.2
1.0
2.4
4.2
6.2
8.3
10.3
12.3
14.5
16.4
18.4
20.4
22.7
25.2
27.9
30.4
32.2
33.6
34.6
35.3
36.1
37.2
38.6
40.0
41.4
42.3
43.1
43.6
43.9
44.5
45.4
46.4
47.2
47.6
47.8
47.9
47.9
48.1
47.8
47.5
46.8
45.8
44.2
42.0
39.5
37.0
34.9
32.8
30.8
28.6
26.3
23.8
21.3
18.8
16.4
14.0
11.7
9.2
6.6
3.9
1.4
-0.6
-2.5
-4.5
-6.9
-9.7
-12.8
-16.0
-19.2
-22.1
-24.6
-26.8
-28.6
-30.4
-32.2
-34.2
-36.4
-38.6
-40.5
-41.9
-42.8
-43.3
-43.7
-44.2
-44.7
-45.0
-45.3
-45.3
-45.1
-45.3
-45.6
-46.2
-47.2
-48.2
-49.3
-50.3
-51.2
-51.8
-52.4
-52.9
-53.4
-53.8
-54.1
-54.5
-54.6
-54.8
-54.8
-55.1
-55.7
-56.9
-58.7
-60.4
-61.9
-62.9
-63.3
-63.5
-63.5
-63.6
-63.6
-63.8
-63.8
-63.3
-62.5
-61.9
-61.6
-61.6
-62.1
-62.4
-62.7
-62.5
-61.8
-60.8
-59.6
-58.8
-58.3
-58.2
-58.0
-57.6
-57.1
-56.3
-55.5
-54.8
-54.3
-54.0
-53.8
-53.7
-53.4
-52.6
-51.7
-50.6
-49.6
-48.9
-48.2
-47.8
-47.8
-47.6
-47.3
-46.8
-46.5
-46.2
-45.9
-45.6
-45.3
-44.8
-43.7
-42.3
-40.8
-39.4
-38.0
-37.0
-36.3
-35.8
-35.3
-35.0
-34.9
-34.7
-34.6
-34.6
-34.7
-34.9
-35.0
-35.2
-35.0
-34.7
-34.2
-33.9
-33.6
-33.5
-33.2
-32.8
-32.2
-31.8
-31.6
-31.9
-32.7
-33.6
-34.9
-36.1
-37.4
-38.3
-39.4
-40.3
-41.2
-42.3
-43.3
-44.2
-44.8
-45.1
-45.0
-44.8
-44.5
-44.2
-43.9
-43.7
-43.6
-43.6
-43.6
-43.4
-43.0
-42.5
-42.3
-42.5
-43.0
-43.7
-44.2
-44.4
-44.0
-43.6
-43.0
-42.5
-42.0
-41.9
-41.9
-42.0
-42.3
-42.3
-42.3
-42.3
-42.0
-41.6
-40.9
-40.3
-39.5
-38.6
-37.5
-36.7
-36.3
-36.1
-36.4
-36.9
-37.0
-37.0
-36.7
-36.1
-35.8
-35.8
-36.1
-36.4
-36.3
-35.6
-34.7
-33.9
-33.3
-33.2
-33.0
-32.5
-31.8
-30.5
-29.3
-28.2
-27.2
-26.5
-25.4
-23.8
-21.3
-17.6
-13.1
-8.1
-3.1
1.0
4.1
5.5
5.2
3.6
1.4
-0.8
-2.7
-4.4
-6.1
-7.8
-9.5
-10.8
-11.1
-10.4
-8.9
-7.2
-5.6
-4.7
-4.2
-4.8
-6.9
-10.8
-16.4
-23.0
-29.6
-35.5
-40.3
-43.7
-45.9
-46.8
-46.8
-46.2
-45.4
-44.8
-44.7
-44.5
-44.5
-44.4
-44.4
-44.7
-45.0
-45.4
-46.2
-47.2
-48.1
-49.0
-49.6
-50.1
-50.1
-49.5
-48.6
-47.6
-46.7
-46.1
-45.3
-44.5
-43.7
-43.1
-42.6
-42.5
-42.3
-42.5
-42.8
-43.0
-42.5
-41.1
-38.0
-32.5
-23.7
-10.6
7.2
30.2
58.2
91.2
129.4
173.1
220.7
269.2
314.0
348.9
366.4
360.4
326.8
264.4
175.5
66.6
-50.6
-164.1
-262.7
-339.4
-391.3
-419.5
-427.2
-419.0
-399.1
-370.8
-336.7
-300.0
-262.9
-226.9
-193.5
-163.2
-136.6
-114.2
-95.8
-81.4
-70.3
-61.9
-55.9
-51.7
-48.9
-47.5
-46.7
-46.2
-45.1
-43.4
-41.2
-38.9
-36.9
-35.3
-34.2
-33.6
-33.2
-32.5
-31.8
-31.0
-30.4
-30.2
-30.4
-30.4
-30.0
-29.4
-28.6
-27.9
-27.4
-26.8
-26.5
-25.8
-25.1
-24.4
-23.7
-22.7
-21.6
-20.4
-19.3
-18.5
-17.9
-17.3
-16.7
-15.7
-14.5
-12.8
-10.8
-8.9
-7.3
-6.1
-5.0
-3.9
-3.0
-1.9
-0.6
0.6
1.9
3.1
4.5
6.2
8.3
10.3
12.5
14.5
16.2
17.8
18.8
19.9
21.3
23.0
25.2
27.7
30.0
32.1
33.9
35.8
37.7
39.7
41.7
43.9
45.6
46.5
46.7
46.5
46.4
46.7
47.3
47.9
48.4
48.4
48.1
47.5
46.7
46.1
45.6
45.3
45.4
45.8
45.8
45.6
44.8
44.0
43.3
42.2
40.6
38.6
36.1
33.3
30.4
27.7
25.1
22.4
19.8
17.1
14.3
11.5
8.4
5.3
2.2
-0.6
-3.3
-5.9
-8.6
-11.4
-14.3
-17.3
-20.6
-23.5
-26.0
-28.3
-30.2
-31.8
-33.2
-34.4
-35.5
-36.1
-36.6
-37.0
-38.1
-39.7
-41.2
-42.8
-43.9
-45.1
-45.9
-46.5
-46.5
-46.4
-46.1
-45.9
-45.8
-45.8
-45.8
-45.8
-45.6
-45.4
-45.4
-45.8
-46.5
-47.8
-49.2
-50.4
-51.3
-52.0
-52.7
-53.5
-54.5
-55.4
-56.2
-56.8
-56.9
-57.1
-57.4
-57.9
-58.5
-59.0
-59.4
-59.9
-60.2
-60.5
-60.7
-60.7
-60.7
-60.5
-60.7
-61.3
-62.5
-63.6
-64.6
-64.7
-64.1
-63.2
-61.9
-60.4
-58.8
-57.3
-55.9
-54.6
-53.4
-52.0
-50.9
-50.1
-49.5
-49.2
-48.9
-48.6
-48.1
-47.3
-46.7
-46.1
-45.8
-45.4
-44.8
-43.6
-42.0
-40.2
-38.1
-36.4
-35.6
-35.6
-36.1
-36.4
-36.6
-36.3
-35.3
-33.9
-32.7
-31.6
-31.1
-30.8
-30.5
-30.0
-29.7
-29.4
-29.4
-30.4
-31.9
-33.6
-34.9
-35.6
-35.8
-35.8
-35.5
-35.3
-35.2
-35.0
-35.0
-34.9
-34.6
-34.2
-33.9
-34.1
-34.4
-35.2
-35.6
-35.6
-35.5
-35.3
-35.2
-35.2
-34.9
-34.7
-35.0
-35.5
-36.0
-36.4
-36.6
-36.4
-36.3
-36.3
-36.6
-36.9
-37.2
-37.4
-36.9
-36.1
-35.2
-34.6
-34.4
-34.4
-34.6
-34.9
-35.5
-36.0
-36.4
-36.7
-36.9
-36.9
-36.7
-36.4
-36.1
-36.0
-36.0
-36.0
-36.1
-36.1
-36.1
-35.8
-35.5
-35.2
-34.9
-34.4
-34.1
-33.8
-33.6
-33.5
-33.3
-32.8
-32.1
-31.1
-30.7
-30.8
-31.3
-31.9
-32.1
-32.1
-31.8
-31.1
-30.2
-28.8
-27.2
-25.5
-23.8
-22.0
-19.6
-16.5
-13.1
-9.5
-6.6
-3.9
-1.6
0.8
3.0
4.5
5.3
5.6
5.6
5.3
4.8
3.8
2.5
1.1
-0.2
-1.3
-2.2
-2.8
-3.0
-3.0
-2.8
-2.5
-2.4
-2.7
-4.4
-8.3
-14.2
-21.6
-28.8
-35.0
-39.7
-42.8
-44.5
-45.8
-46.7
-47.6
-48.7
-49.8
-50.7
-51.3
-51.7
-51.7
-51.7
-51.7
-51.5
-51.2
-50.7
-49.8
-48.4
-46.8
-45.3
-44.2
-43.6
-43.6
-44.0
-44.8
-45.6
-46.4
-46.7
-47.0
-47.0
-47.0
-46.8
-46.2
-45.3
-43.7
-41.9
-40.2
-38.8
-37.4
-35.0
-30.2
-21.6
-8.3
10.0
33.3
61.6
95.1
134.1
178.9
228.3
279.7
327.9
366.0
385.9
381.1
348.2
286.2
196.1
84.6
-37.2
-156.8
-263.0
-347.8
-407.8
-442.6
-455.1
-449.5
-430.5
-402.2
-367.8
-330.0
-290.9
-252.3
-215.9
-182.9
-153.7
-128.6
-107.8
-90.9
-77.9
-68.6
-61.9
-57.1
-53.5
-50.6
-48.1
-45.9
-43.9
-42.2
-40.8
-39.7
-38.9
-38.1
-37.5
-36.9
-36.3
-35.5
-34.9
-34.1
-33.2
-32.1
-30.8
-29.4
-28.2
-27.4
-26.8
-26.5
-26.5
-26.8
-26.8
-26.3
-25.7
-24.8
-23.7
-22.7
-22.0
-21.2
-20.1
-18.2
-16.0
-13.9
-11.8
-10.4
-9.4
-8.4
-7.5
-6.4
-5.2
-3.9
-2.7
-1.7
-0.8
0.0
1.0
2.4
3.9
5.9
8.3
10.4
12.3
14.0
15.9
17.9
20.1
22.4
24.4
26.3
28.0
29.3
30.4
31.8
33.2
34.9
36.7
38.8
40.8
42.8
44.7
46.4
47.8
48.9
49.9
51.0
52.3
53.4
54.1
54.6
54.8
54.5
54.0
53.1
52.3
51.7
51.2
50.3
49.0
47.5
45.9
44.5
43.7
43.4
43.3
42.8
41.4
39.4
37.0
34.7
32.7
31.1
29.6
27.9
25.5
22.7
19.3
15.7
12.3
9.0
5.8
2.8
-0.3
-3.9
-7.6
-11.4
-14.8
-17.6
-19.8
-21.3
-23.0
-24.8
-26.8
-28.8
-30.5
-32.2
-34.1
-36.1
-38.4
-40.8
-43.0
-44.7
-46.1
-47.0
-47.5
-47.8
-48.2
-49.0
-50.1
-51.2
-52.3
-53.4
-54.6
-55.7
-56.6
-57.3
-57.9
-58.3
-58.7
-58.8
-58.5
-58.0
-57.3
-56.2
-55.2
-54.6
-54.3
-54.3
-54.5
-54.6
-55.1
-55.5
-56.3
-57.1
-57.9
-58.8
-59.4
-59.9
-60.1
-59.9
-59.4
-58.8
-58.2
-57.6
-57.3
-56.6
-56.2
-55.9
-55.7
-55.7
-55.5
-55.5
-55.5
-55.5
-55.1
-54.1
-53.1
-52.0
-51.2
-50.4
-49.8
-49.3
-48.9
-48.6
-48.1
-47.5
-46.4
-45.1
-43.7
-42.6
-41.9
-41.1
-40.3
-39.5
-38.9
-38.8
-39.1
-39.5
-39.8
-39.7
-38.9
-37.7
-36.4
-35.3
-34.4
-34.1
-33.9
-34.2
-34.4
-34.4
-34.4
-34.2
-34.2
-34.7
-35.3
-35.5
-35.2
-34.4
-33.3
-32.5
-32.1
-32.2
-32.7
-33.3
-34.1
-34.6
-34.7
-34.7
-34.4
-34.2
-34.4
-34.9
-35.3
-35.8
-35.8
-35.3
-34.7
-33.9
-33.2
-32.7
-32.8
-33.3
-33.6
-33.9
-34.1
-34.1
-34.1
-34.2
-34.4
-34.9
-35.2
-35.2
-35.2
-35.3
-35.6
-36.3
-36.9
-37.4
-37.5
-37.7
-37.5
-37.5
-37.4
-37.5
-37.8
-38.1
-38.3
-38.0
-37.2
-36.1
-34.7
-33.8
-33.3
-33.3
-33.8
-34.6
-35.3
-36.1
-36.6
-36.9
-37.2
-37.8
-38.9
-40.0
-40.8
-40.9
-40.3
-39.4
-38.6
-38.3
-38.6
-39.4
-40.2
-40.5
-40.2
-39.7
-39.1
-38.3
-37.5
-36.9
-36.1
-34.9
-33.5
-31.9
-30.5
-29.3
-28.3
-27.7
-27.1
-26.3
-24.9
-22.7
-19.9
-16.7
-12.9
-8.9
-5.0
-1.7
0.0
0.5
0.0
-1.0
-1.9
-2.4
-3.0
-3.9
-5.2
-6.6
-8.0
-8.7
-8.6
-8.0
-7.2
-6.4
-6.1
-6.9
-8.6
-11.7
-16.0
-21.5
-27.6
-33.3
-38.6
-43.0
-46.4
-48.7
-49.8
-50.1
-49.6
-49.3
-49.0
-48.9
-48.7
-48.4
-48.1
-47.9
-47.6
-47.3
-47.0
-47.0
-47.2
-47.3
-47.3
-46.8
-46.2
-45.8
-45.3
-44.8
-44.5
-44.2
-44.0
-43.9
-43.7
-43.4
-43.1
-42.8
-42.6
-42.5
-42.2
-41.6
-40.9
-39.8
-37.7
-33.5
-25.8
-14.0
2.5
24.1
50.6
81.7
117.9
159.3
205.3
253.8
300.6
339.8
363.8
365.8
342.3
291.9
214.0
112.5
-4.1
-123.7
-233.9
-325.8
-394.9
-439.2
-460.1
-461.0
-446.8
-422.4
-391.0
-354.9
-316.5
-277.8
-240.2
-204.7
-172.3
-143.9
-119.6
-99.6
-83.5
-71.4
-62.4
-55.7
-51.0
-47.8
-45.4
-43.7
-42.6
-41.7
-40.6
-39.4
-38.1
-37.2
-36.6
-36.0
-35.3
-34.2
-32.8
-31.1
-29.1
-27.4
-26.0
-24.8
-23.8
-22.6
-21.6
-20.9
-20.4
-20.1
-19.8
-19.3
-18.8
-17.9
-16.8
-15.6
-14.3
-13.4
-12.9
-12.8
-12.8
-12.6
-12.0
-11.2
-10.0
-8.7
-7.3
-6.1
-5.0
-4.2
-3.6
-3.1
-2.8
-2.4
-1.7
-0.5
1.0
2.8
5.0
7.5
9.8
12.2
14.3
16.2
17.9
19.6
21.2
22.9
24.8
26.6
28.5
30.4
31.9
33.5
34.7
36.1
37.5
39.2
40.9
42.6
44.4
45.6
46.4
46.5
46.7
47.0
47.5
48.2
49.0
49.8
50.1
49.8
49.5
49.2
49.2
49.2
49.0
48.9
48.1
47.2
45.8
44.2
42.6
40.9
39.1
37.0
34.7
32.1
29.4
26.9
24.6
22.3
19.6
17.0
14.3
11.7
9.0
6.4
3.8
1.1
-1.3
-3.9
-6.7
-9.7
-12.9
-16.5
-20.1
-23.2
-25.7
-27.6
-29.0
-30.4
-32.1
-33.9
-36.1
-38.0
-39.4
-40.6
-41.4
-42.2
-43.0
-43.9
-45.1
-46.7
-48.2
-49.3
-49.9
-50.1
-50.4
-51.2
-52.4
-53.5
-54.3
-54.6
-54.5
-54.3
-54.1
-54.5
-55.4
-56.8
-58.3
-59.4
-60.2
-60.7
-61.0
-61.5
-62.1
-62.5
-62.9
-62.9
-62.9
-63.2
-63.6
-64.3
-64.9
-65.2
-65.3
-65.3
-64.9
-64.3
-63.3
-62.4
-61.6
-61.6
-62.1
-63.0
-64.1
-64.9
-65.3
-65.2
-64.6
-63.6
-62.5
-61.6
-60.8
-60.1
-59.1
-58.2
-57.1
-56.2
-55.5
-54.9
-54.3
-53.7
-53.1
-52.4
-51.8
-51.0
-50.1
-49.3
-48.7
-48.7
-48.7
-48.4
-47.6
-46.4
-45.0
-44.0
-43.6
-43.3
-43.0
-42.3
-41.2
-39.8
-38.4
-37.2
-36.6
-36.3
-36.4
-36.6
-36.7
-36.4
-35.8
-34.9
-33.9
-33.5
-33.5
-34.1
-34.7
-35.3
-36.0
-36.4
-36.9
-37.5
-38.6
-39.8
-41.2
-42.3
-42.8
-43.0
-42.8
-42.5
-42.2
-42.2
-42.3
-42.6
-43.4
-44.4
-45.6
-46.7
-47.5
-47.3
-46.7
-45.8
-45.1
-44.7
-44.7
-44.8
-45.4
-46.2
-47.3
-48.2
-48.9
-48.7
-48.4
-48.1
-48.1
-48.6
-49.2
-49.8
-50.3
-50.4
-50.4
-50.1
-49.5
-49.2
-49.0
-49.0
-49.2
-49.0
-48.7
-48.6
-48.4
-48.2
-48.1
-47.9
-48.1
-48.1
-47.9
-47.5
-46.5
-45.4
-44.4
-43.4
-42.5
-41.7
-40.8
-39.5
-37.8
-35.6
-33.6
-32.1
-30.7
-29.0
-26.9
-24.3
-21.6
-19.9
-19.3
-19.8
-21.0
-22.4
-23.8
-24.8
-24.9
-24.8
-24.1
-23.4
-22.7
-22.3
-22.1
-22.1
-22.0
-22.1
-22.7
-24.3
-27.6
-32.5
-38.9
-45.6
-51.8
-56.9
-60.5
-63.0
-64.7
-66.0
-66.9
-67.4
-67.4
-66.6
-65.3
-63.8
-62.2
-61.0
-60.2
-59.7
-59.6
-59.4
-59.1
-59.0
-59.0
-58.8
-58.8
-58.8
-58.7
-58.8
-59.3
-59.6
-59.9
-59.9
-59.7
-59.6
-59.4
-59.6
-59.4
-59.3
-59.0
-58.8
-58.7
-58.8
-58.3
-56.6
-51.8
-43.1
-30.0
-12.3
10.0
36.7
68.3
104.7
145.9
191.0
237.7
280.9
313.9
329.1
321.6
289.6
231.6
148.9
46.5
-65.7
-176.1
-274.1
-352.9
-409.5
-443.4
-456.3
-451.8
-434.7
-408.9
-377.3
-342.3
-305.8
-269.2
-234.1
-201.3
-171.7
-145.9
-124.4
-106.9
-93.3
-83.5
-76.5
-71.6
-67.5
-64.3
-61.5
-58.8
-56.5
-54.3
-52.1
-50.1
-48.2
-46.7
-45.3
-43.6
-41.7
-39.7
-38.0
-36.9
-36.4
-36.4
-36.3
-35.8
-35.2
-34.4
-33.9
-33.9
-34.1
-34.2
-33.9
-33.0
-31.6
-30.4
-29.4
-28.8
-28.3
-28.2
-27.9
-27.2
-26.2
-24.4
-22.4
-20.6
-19.2
-17.9
-16.7
-15.4
-14.0
-12.6
-11.2
-10.0
-9.2
-8.6
-8.0
-6.9
-5.3
-3.4
-1.1
1.3
3.8
6.1
8.3
10.4
12.5
14.3
16.4
18.1
19.9
21.8
23.8
26.0
28.3
30.7
33.0
35.0
37.0
38.4
39.7
40.5
41.2
41.9
42.8
43.9
45.0
46.1
47.0
47.6
47.9
48.4
48.9
49.3
49.5
49.0
48.2
47.2
46.1
45.0
44.0
43.0
41.7
40.5
39.4
38.6
37.8
36.7
35.5
33.8
31.8
29.3
26.3
22.9
19.2
15.3
11.2
7.5
4.2
1.3
-1.6
-4.5
-7.6
-11.1
-14.2
-17.0
-19.3
-21.2
-22.7
-24.3
-25.8
-27.7
-29.4
-31.0
-32.4
-33.8
-35.5
-36.9
-38.3
-39.7
-41.2
-43.0
-44.7
-46.2
-47.5
-48.4
-49.3
-50.3
-51.3
-52.7
-54.3
-55.9
-56.9
-57.6
-57.7
-57.7
-57.9
-58.5
-59.4
-60.5
-61.5
-62.4
-63.0
-63.6
-64.4
-65.5
-66.6
-67.5
-67.8
-67.8
-67.7
-67.7
-68.0
-68.6
-69.7
-70.8
-71.9
-72.5
-72.5
-72.2
-71.6
-71.1
-70.8
-70.6
-70.6
-70.2
-69.5
-68.8
-68.0
-67.5
-67.4
-67.4
-67.5
-67.4
-66.9
-66.1
-65.0
-63.9
-62.9
-62.1
-61.6
-61.5
-61.0
-60.4
-59.1
-57.7
-56.3
-55.2
-54.5
-53.7
-52.9
-52.1
-51.2
-50.3
-49.2
-48.1
-47.2
-46.2
-45.3
-44.4
-43.4
-42.6
-41.9
-41.2
-40.8
-40.6
-40.6
-40.5
-40.3
-40.2
-39.8
-39.5
-39.5
-39.8
-40.5
-41.2
-41.9
-42.5
-42.8
-43.0
-42.8
-42.3
-41.9
-41.4
-41.1
-40.9
-41.1
-41.4
-41.9
-42.3
-42.8
-43.1
-43.6
-43.7
-43.9
-43.7
-43.7
-43.6
-43.6
-43.7
-44.0
-44.5
-44.7
-44.8
-45.1
-45.6
-46.1
-46.4
-46.7
-47.0
-47.2
-47.0
-46.8
-46.7
-46.7
-46.7
-46.8
-46.8
-47.0
-47.0
-47.0
-47.0
-47.2
-47.5
-47.8
-48.1
-48.4
-48.7
-48.7
-48.4
-47.8
-47.2
-46.7
-46.7
-47.0
-47.2
-47.2
-46.8
-46.2
-45.4
-44.7
-44.0
-43.6
-43.0
-42.3
-41.6
-40.8
-39.7
-38.3
-36.9
-36.0
-35.5
-35.3
-34.9
-33.8
-32.1
-29.6
-26.5
-22.7
-18.7
-15.0
-12.2
-10.8
-10.4
-11.4
-12.8
-14.3
-15.7
-17.0
-17.6
-17.9
-17.9
-17.9
-18.1
-17.9
-17.4
-16.7
-15.9
-15.4
-15.7
-17.3
-20.6
-25.8
-33.0
-40.9
-48.4
-54.6
-59.1
-62.1
-63.6
-64.1
-64.1
-63.9
-63.6
-63.2
-62.5
-61.8
-61.0
-60.4
-59.9
-59.7
-59.6
-59.6
-59.7
-60.1
-60.2
-60.2
-60.2
-60.2
-60.1
-59.9
-59.7
-59.4
-58.8
-57.9
-56.8
-55.7
-54.9
-54.5
-54.5
-54.6
-54.8
-54.6
-54.5
-54.0
-53.2
-51.8
-49.0
-43.3
-33.2
-17.8
2.8
28.8
60.2
96.8
138.4
184.6
233.6
281.8
323.8
352.4
360.4
342.2
295.8
221.0
121.8
7.5
-110.1
-219.2
-310.1
-377.6
-420.6
-440.8
-442.2
-429.3
-405.8
-375.0
-339.7
-302.4
-265.3
-229.9
-197.4
-168.1
-142.6
-120.6
-102.0
-87.1
-75.9
-68.3
-63.5
-60.8
-59.3
-57.7
-56.2
-54.3
-52.3
-50.6
-49.3
-48.6
-47.9
-47.5
-46.8
-45.8
-44.0
-42.0
-40.0
-38.8
-38.3
-38.1
-37.8
-37.4
-36.6
-36.0
-35.3
-35.0
-34.7
-34.4
-33.8
-32.7
-31.6
-30.0
-28.2
-26.5
-25.1
-24.1
-23.4
-22.3
-21.0
-19.6
-18.4
-17.3
-16.2
-15.1
-14.0
-12.9
-12.0
-11.1
-10.0
-8.6
-7.0
-5.5
-3.9
-2.4
-0.8
0.8
2.4
3.9
5.5
7.2
9.2
11.4
13.6
16.0
18.7
21.2
23.7
25.8
27.7
29.1
30.5
31.6
32.8
34.1
35.3
36.9
38.4
39.8
41.4
42.8
44.0
45.0
45.6
45.9
46.2
46.4
46.4
46.5
46.8
47.3
47.8
48.4
48.9
49.0
48.7
48.2
47.5
47.0
46.2
45.4
44.2
42.5
40.5
38.1
35.8
33.2
30.7
28.0
25.5
22.9
19.9
16.7
13.1
9.5
5.9
2.8
0.0
-2.8
-5.6
-8.7
-12.0
-15.4
-18.4
-20.9
-22.9
-24.8
-26.6
-28.5
-30.7
-33.2
-35.8
-38.3
-40.5
-42.0
-43.3
-44.4
-45.6
-47.3
-49.2
-51.3
-53.4
-55.5
-57.3
-58.5
-59.1
-59.3
-59.4
-59.6
-59.7
-59.9
-60.2
-60.2
-59.9
-59.4
-59.1
-59.3
-59.6
-59.7
-59.9
-60.1
-59.9
-59.6
-59.6
-59.6
-59.7
-59.7
-59.7
-59.6
-59.6
-59.4
-59.1
-59.1
-59.6
-60.2
-61.1
-61.9
-62.7
-63.3
-63.8
-64.4
-64.9
-65.3
-65.3
-64.9
-64.1
-63.3
-62.5
-61.9
-61.6
-61.6
-61.5
-60.8
-59.9
-58.7
-57.4
-56.5
-55.9
-55.2
-54.5
-53.5
-52.4
-51.3
-50.3
-49.2
-48.2
-47.5
-47.0
-46.7
-46.1
-45.1
-44.0
-43.1
-42.5
-42.2
-42.0
-41.9
-41.4
-40.6
-39.4
-38.0
-36.7
-35.8
-35.3
-35.2
-35.2
-35.2
-35.0
-34.4
-33.5
-32.4
-31.6
-31.0
-30.7
-30.7
-31.0
-31.3
-31.8
-32.2
-32.8
-33.6
-34.4
-35.2
-35.8
-36.1
-36.1
-36.0
-35.5
-35.2
-34.9
-34.7
-34.7
-34.7
-34.4
-34.4
-34.4
-34.7
-35.2
-35.6
-36.1
-36.4
-36.4
-36.6
-36.7
-37.2
-38.0
-38.9
-40.0
-40.8
-40.9
-40.8
-40.5
-40.0
-39.8
-40.0
-40.3
-40.5
-40.5
-40.2
-39.8
-39.7
-39.5
-39.5
-39.8
-40.2
-40.5
-40.6
-40.8
-40.8
-40.8
-40.8
-41.1
-41.2
-41.2
-40.9
-40.6
-40.3
-40.2
-40.3
-40.5
-40.5
-40.3
-40.2
-39.8
-39.4
-38.8
-38.1
-37.2
-36.4
-35.5
-34.9
-34.1
-33.0
-31.4
-29.4
-27.2
-25.2
-23.4
-21.3
-19.0
-16.4
-13.4
-10.4
-7.2
-3.8
-0.8
1.0
1.4
0.8
-0.3
-1.9
-3.6
-5.5
-7.6
-9.8
-11.7
-12.9
-13.4
-13.1
-12.5
-11.4
-10.3
-9.5
-9.4
-10.1
-12.3
-16.0
-21.5
-28.0
-34.6
-40.5
-45.3
-48.9
-51.3
-52.6
-53.1
-52.7
-52.1
-51.7
-51.2
-50.9
-50.6
-50.1
-49.5
-48.9
-48.4
-48.2
-48.7
-49.6
-50.7
-51.5
-52.0
-51.8
-51.5
-50.9
-50.1
-49.6
-49.5
-49.5
-49.6
-49.5
-49.3
-48.9
-48.6
-48.6
-48.9
-49.2
-49.3
-48.9
-48.2
-47.3
-45.4
-41.4
-33.8
-21.5
-4.1
18.4
45.8
78.3
116.2
159.7
208.3
259.6
309.4
351.3
378.1
382.3
359.7
308.4
227.9
122.6
2.2
-120.9
-234.4
-328.6
-398.8
-443.1
-463.2
-463.2
-448.1
-422.4
-389.1
-351.2
-310.9
-270.5
-231.9
-196.6
-165.5
-138.8
-116.5
-98.5
-84.3
-73.9
-66.3
-61.1
-57.7
-55.5
-54.3
-53.5
-52.9
-52.3
-51.0
-49.3
-47.5
-46.1
-44.7
-43.3
-41.7
-40.0
-38.1
-36.3
-34.6
-33.2
-32.2
-31.9
-31.8
-31.6
-31.3
-30.7
-29.9
-29.1
-28.6
-28.2
-27.7
-26.8
-25.8
-24.9
-24.0
-22.9
-21.6
-20.4
-19.3
-18.2
-17.0
-15.4
-13.7
-12.2
-10.6
-9.0
-7.6
-6.4
-5.6
-4.8
-3.9
-2.7
-1.0
0.8
2.5
4.1
5.8
7.6
9.7
11.7
13.6
15.1
16.5
17.9
19.5
21.3
23.7
26.5
29.6
32.5
35.5
38.1
40.6
42.8
44.8
46.5
48.1
49.5
50.7
52.0
52.9
53.5
54.0
54.5
55.1
55.9
56.8
57.6
58.2
58.2
57.7
57.1
56.6
56.2
55.9
55.4
54.3
52.6
50.9
49.0
47.6
46.2
44.8
43.9
42.8
41.7
40.2
38.1
35.5
32.5
29.6
26.6
24.0
21.3
18.4
14.8
11.1
7.2
3.4
0.2
-2.8
-5.6
-8.6
-11.5
-14.2
-16.8
-19.0
-20.6
-21.3
-22.1
-23.0
-24.4
-26.3
-28.5
-30.8
-33.3
-35.6
-37.8
-39.8
-41.7
-43.4
-45.0
-46.2
-47.0
-47.5
-47.8
-48.1
-48.6
-49.3
-50.4
-51.3
-52.0
-52.0
-51.8
-51.5
-51.7
-52.3
-53.4
-54.6
-55.7
-56.3
-56.8
-56.9
-56.9
-57.3
-57.6
-58.0
-58.3
-58.2
-57.6
-56.6
-56.0
-56.2
-57.3
-58.7
-59.9
-60.5
-60.8
-60.7
-60.5
-60.2
-60.1
-60.1
-60.1
-59.9
-59.4
-58.7
-57.9
-56.9
-56.3
-55.9
-55.9
-55.9
-55.7
-55.4
-54.8
-54.1
-53.4
-52.7
-52.0
-51.0
-49.8
-48.6
-47.0
-45.3
-43.6
-42.2
-41.1
-40.3
-39.7
-39.2
-38.8
-38.4
-38.4
-38.4
-38.6
-38.8
-38.6
-38.1
-37.4
-36.4
-35.3
-34.2
-33.2
-32.5
-32.1
-32.2
-32.5
-32.5
-32.4
-32.2
-31.9
-31.8
-32.1
-32.7
-33.6
-34.2
-34.7
-35.2
-35.5
-35.8
-36.1
-36.6
-36.9
-37.4
-37.5
-37.5
-37.5
-37.7
-38.3
-39.1
-40.2
-41.6
-42.8
-43.9
-44.0
-43.7
-43.0
-42.2
-41.7
-41.7
-42.2
-42.8
-43.3
-43.6
-43.9
-44.0
-44.4
-44.5
-44.8
-45.0
-45.1
-45.4
-45.4
-45.4
-45.6
-46.1
-47.0
-47.9
-48.4
-48.4
-48.1
-47.8
-47.8
-47.9
-48.4
-48.9
-49.2
-49.3
-49.2
-48.7
-47.9
-47.5
-47.6
-48.1
-48.6
-48.9
-49.0
-49.2
-49.2
-48.7
-48.1
-47.0
-45.8
-44.4
-42.5
-40.5
-38.4
-36.3
-34.2
-31.8
-29.1
-26.5
-24.1
-21.8
-19.2
-16.0
-12.9
-10.8
-9.7
-9.7
-10.4
-11.2
-11.8
-12.3
-12.6
-12.8
-12.8
-12.9
-13.1
-12.9
-12.5
-11.8
-11.4
-11.5
-12.3
-13.9
-16.8
-21.0
-26.5
-32.7
-39.1
-44.8
-49.6
-53.2
-55.5
-56.6
-56.8
-56.0
-54.9
-53.8
-52.9
-52.6
-52.3
-51.8
-51.3
-51.2
-51.0
-51.0
-50.9
-50.9
-51.0
-51.2
-51.5
-52.0
-52.1
-52.0
-51.3
-50.4
-49.5
-48.4
-47.3
-46.5
-45.9
-45.3
-45.1
-45.3
-45.9
-46.8
-47.9
-48.7
-49.2
-48.6
-46.2
-41.2
-32.8
-20.6
-4.2
16.2
41.4
71.4
106.9
147.8
193.0
239.8
284.2
319.3
338.1
335.3
309.0
257.9
182.0
85.1
-24.8
-136.7
-239.7
-325.2
-388.8
-429.1
-447.2
-446.2
-431.3
-407.5
-377.9
-344.5
-308.9
-272.2
-236.1
-201.6
-170.0
-142.5
-119.5
-101.0
-86.7
-75.6
-67.7
-61.9
-58.0
-55.2
-53.2
-51.8
-50.6
-49.6
-48.9
-48.1
-47.0
-45.9
-44.7
-43.7
-43.0
-42.2
-41.4
-40.2
-38.8
-37.4
-36.6
-36.3
-36.3
-36.3
-36.1
-36.0
-35.6
-35.3
-34.7
-34.4
-34.4
-34.4
-34.2
-33.6
-32.5
-31.0
-29.3
-27.7
-26.6
-26.2
-26.2
-26.0
-25.5
-24.4
-22.9
-21.2
-19.5
-17.9
-16.2
-14.5
-12.6
-10.6
-8.6
-6.6
-4.7
-2.8
-1.1
0.5
2.0
3.6
5.5
7.6
9.7
11.7
13.6
15.0
16.5
17.9
19.3
20.7
22.1
23.5
24.9
26.3
28.0
30.0
32.5
34.9
37.0
38.9
40.2
41.1
41.7
41.9
42.0
42.6
43.6
44.4
44.5
43.9
42.6
41.4
40.3
39.5
39.1
38.9
38.6
37.8
36.7
35.5
34.1
32.7
31.3
29.6
27.7
25.7
23.2
20.6
17.8
15.3
13.4
11.8
10.4
8.9
6.9
4.4
1.6
-1.1
-3.9
-6.9
-9.8
-12.8
-15.6
-18.4
-21.0
-23.7
-26.2
-28.3
-30.0
-31.4
-32.5
-33.5
-34.7
-36.4
-38.3
-40.0
-41.1
-41.9
-42.2
-42.3
-42.6
-43.4
-44.8
-46.2
-47.3
-47.9
-48.1
-48.2
-48.2
-48.2
-48.4
-48.7
-49.3
-50.1
-50.9
-51.7
-52.3
-53.1
-54.0
-55.1
-56.2
-56.6
-56.9
-56.9
-56.8
-56.9
-57.4
-58.2
-59.0
-59.4
-59.7
-59.7
-59.4
-58.7
-58.2
-57.9
-58.0
-58.3
-58.3
-58.3
-58.2
-57.9
-57.4
-57.1
-57.1
-57.1
-56.9
-56.3
-55.2
-54.0
-52.7
-51.3
-50.1
-49.0
-48.1
-47.0
-45.9
-44.7
-43.4
-42.5
-42.2
-42.0
-42.0
-41.9
-41.2
-40.3
-39.5
-38.9
-38.8
-38.9
-39.1
-39.4
-39.4
-38.9
-38.1
-37.4
-36.6
-36.3
-36.0
-35.6
-35.2
-34.4
-33.5
-32.4
-31.3
-30.4
-29.6
-29.1
-29.1
-29.1
-29.1
-29.0
-29.0
-29.1
-29.9
-31.0
-31.9
-32.7
-33.0
-33.3
-33.5
-33.6
-33.9
-34.2
-34.7
-35.5
-36.1
-36.9
-37.4
-37.8
-38.3
-38.8
-39.4
-40.0
-40.6
-41.1
-41.4
-41.9
-42.3
-42.6
-42.5
-42.0
-41.2
-40.3
-39.2
-38.4
-38.1
-38.1
-38.6
-39.1
-39.7
-40.0
-40.2
-40.3
-40.5
-40.8
-41.2
-41.7
-42.3
-42.8
-43.0
-42.6
-42.0
-41.4
-40.8
-40.8
-41.2
-42.0
-43.0
-43.6
-44.0
-44.0
-43.9
-43.7
-43.6
-43.6
-43.4
-43.1
-42.3
-40.9
-39.2
-37.7
-36.6
-35.8
-35.5
-35.0
-34.6
-34.1
-33.3
-32.1
-30.4
-28.3
-26.3
-24.1
-21.8
-19.0
-16.2
-13.6
-11.7
-10.8
-11.1
-12.5
-14.3
-16.5
-18.2
-19.8
-21.3
-22.7
-24.3
-25.5
-26.2
-26.0
-25.2
-24.1
-23.4
-23.4
-24.4
-27.2
-31.4
-37.0
-43.1
-48.9
-54.1
-58.2
-61.3
-63.6
-65.3
-66.3
-66.6
-66.3
-65.3
-64.3
-63.3
-62.7
-62.7
-63.0
-63.5
-63.6
-63.6
-63.5
-63.0
-62.5
-62.1
-62.1
-62.2
-62.5
-62.4
-61.8
-60.4
-59.0
-57.9
-57.4
-57.6
-58.0
-58.3
-58.2
-57.9
-57.4
-57.3
-57.7
-58.3
-58.8
-57.9
-54.8
-48.1
-36.9
-21.2
-1.3
22.6
50.9
84.5
123.7
168.5
216.4
263.9
305.5
333.9
342.3
326.6
285.1
217.1
125.2
16.7
-97.2
-205.2
-297.2
-367.5
-414.2
-437.8
-441.9
-430.7
-408.7
-379.7
-346.4
-310.9
-275.1
-240.5
-207.6
-177.2
-149.6
-125.8
-106.4
-91.0
-79.8
-71.9
-66.3
-62.4
-59.7
-57.7
-56.2
-55.1
-54.3
-53.4
-52.4
-51.0
-49.5
-47.8
-46.4
-45.1
-44.2
-43.6
-43.0
-42.3
-41.2
-39.8
-38.1
-36.4
-35.0
-33.8
-33.0
-32.4
-31.9
-31.4
-30.8
-30.2
-29.7
-29.4
-28.8
-28.0
-26.9
-25.7
-24.0
-22.0
-19.9
-18.2
-16.8
-15.4
-14.0
-12.5
-10.9
-9.5
-8.3
-7.5
-6.7
-5.9
-4.8
-3.4
-1.7
0.0
1.7
3.6
5.3
6.6
7.8
9.2
11.1
12.9
15.0
16.8
18.7
20.7
22.4
24.1
25.7
27.4
29.3
31.3
33.2
34.9
36.1
37.4
38.8
40.5
42.5
44.7
46.8
48.6
49.9
50.9
51.3
51.8
52.4
53.2
53.8
54.1
54.0
53.2
52.1
50.9
49.8
48.7
47.9
47.3
46.7
45.8
44.2
42.3
40.3
38.4
36.6
34.6
32.1
29.1
26.2
23.0
20.1
17.1
14.2
11.1
8.0
4.5
1.3
-2.0
-5.5
-9.0
-12.5
-15.3
-17.6
-19.6
-22.0
-24.4
-27.1
-30.0
-33.2
-36.0
-38.4
-40.5
-42.2
-43.6
-45.1
-46.7
-48.1
-49.2
-50.1
-50.6
-50.9
-51.3
-52.0
-52.7
-53.5
-53.8
-54.0
-53.8
-53.8
-54.1
-54.8
-55.2
-55.9
-56.2
-56.6
-56.8
-56.9
-56.9
-56.9
-57.3
-58.0
-59.0
-59.9
-60.4
-60.8
-61.0
-61.3
-61.5
-61.8
-62.4
-63.2
-63.6
-64.1
-64.4
-64.6
-64.6
-64.3
-63.5
-62.4
-61.3
-60.5
-59.9
-59.4
-59.3
-59.1
-59.0
-59.0
-58.8
-58.8
-58.7
-58.7
-58.3
-58.0
-57.6
-56.9
-56.0
-54.9
-53.8
-52.6
-51.5
-50.6
-49.6
-48.9
-48.6
-48.2
-47.8
-47.0
-45.8
-44.4
-43.3
-42.5
-42.3
-42.6
-42.8
-42.8
-42.6
-42.3
-42.2
-42.2
-42.2
-42.2
-41.9
-41.1
-40.2
-39.2
-38.4
-37.8
-37.7
-37.7
-37.8
-38.0
-37.8
-37.4
-36.7
-36.4
-36.3
-36.4
-36.7
-36.7
-36.4
-36.0
-35.3
-35.0
-34.9
-35.2
-35.5
-35.8
-36.3
-36.6
-36.9
-37.2
-37.4
-37.5
-37.8
-38.0
-38.0
-37.7
-37.2
-37.0
-37.4
-38.0
-39.1
-40.3
-41.6
-42.6
-43.3
-43.6
-43.4
-43.1
-42.8
-42.5
-42.5
-42.5
-42.6
-43.0
-43.1
-43.3
-43.7
-44.4
-44.7
-44.8
-44.8
-44.7
-44.7
-44.4
-44.0
-43.9
-44.0
-44.2
-44.2
-44.0
-44.0
-44.2
-44.2
-44.4
-44.5
-44.5
-44.4
-44.2
-44.2
-44.2
-44.0
-43.4
-43.0
-42.3
-41.6
-40.5
-39.2
-37.5
-36.0
-34.2
-32.5
-31.1
-30.0
-28.8
-27.2
-24.9
-22.3
-19.2
-15.6
-12.0
-8.3
-5.2
-3.0
-1.7
-1.7
-2.4
-3.6
-5.0
-6.7
-8.4
-10.1
-11.5
-12.5
-12.6
-12.0
-11.1
-9.8
-8.7
-8.0
-8.0
-8.7
-10.4
-13.6
-18.2
-24.1
-30.8
-37.4
-43.1
-47.5
-50.3
-51.8
-52.4
-52.6
-52.7
-52.9
-53.1
-53.1
-53.1
-53.1
-52.9
-52.6
-52.0
-51.5
-51.2
-51.0
-51.2
-51.0
-50.3
-49.2
-47.9
-47.2
-46.8
-46.8
-47.0
-46.7
-46.1
-45.1
-44.2
-43.1
-42.3
-41.7
-41.2
-40.8
-40.2
-39.4
-38.4
-37.8
-36.9
-34.9
-30.0
-20.9
-6.4
13.2
38.0
67.4
101.6
141.2
186.3
235.5
286.0
333.0
369.1
386.7
379.8
344.8
280.7
189.3
77.6
-43.1
-160.5
-263.3
-344.0
-399.9
-431.6
-442.0
-435.5
-416.2
-387.9
-353.7
-316.7
-278.9
-242.2
-207.5
-175.9
-148.1
-124.1
-104.2
-88.2
-76.1
-67.2
-61.0
-56.8
-54.1
-52.4
-51.2
-50.1
-49.0
-47.8
-46.4
-45.0
-43.6
-42.2
-40.9
-39.5
-38.3
-37.2
-36.7
-36.4
-36.3
-36.1
-35.8
-35.2
-34.4
-33.5
-32.4
-31.8
-31.4
-31.1
-31.0
-30.4
-29.3
-27.9
-26.0
-24.3
-22.7
-22.0
-21.6
-21.3
-21.2
-20.9
-20.4
-19.6
-18.8
-17.8
-16.5
-14.8
-12.6
-10.1
-7.6
-5.6
-3.9
-2.5
-1.1
0.2
1.7
3.6
5.8
8.3
10.9
13.4
15.6
17.3
18.7
20.1
21.8
23.7
25.7
27.7
29.6
31.3
33.0
34.9
37.0
39.2
41.4
43.6
45.6
47.0
48.1
49.0
50.1
51.3
52.7
54.5
55.9
56.8
57.1
57.1
56.9
56.9
57.1
57.1
57.3
57.1
56.6
55.5
54.1
52.6
50.9
48.9
46.8
44.7
42.3
40.2
38.1
36.3
34.1
31.8
29.3
26.9
24.6
22.3
19.6
17.0
14.0
10.9
7.6
4.2
1.0
-2.5
-5.9
-9.4
-12.5
-15.3
-18.1
-20.6
-23.0
-25.4
-27.6
-29.9
-32.1
-34.4
-36.6
-38.8
-40.6
-42.3
-43.9
-45.4
-46.8
-48.1
-49.0
-49.8
-50.4
-50.7
-51.2
-51.5
-52.0
-52.4
-52.9
-53.1
-53.2
-53.4
-53.8
-54.5
-55.1
-55.9
-56.6
-57.1
-56.9
-56.5
-55.7
-54.9
-54.5
-54.5
-55.1
-56.0
-57.1
-57.7
-58.0
-58.0
-58.0
-58.5
-59.4
-60.5
-61.8
-62.7
-63.3
-63.6
-63.8
-63.9
-64.1
-64.3
-64.3
-63.8
-62.9
-61.3
-59.7
-58.5
-57.7
-57.1
-56.8
-56.5
-56.0
-55.4
-54.8
-54.3
-54.1
-54.1
-54.3
-54.1
-53.5
-52.9
-52.1
-51.2
-50.7
-50.3
-50.3
-50.3
-49.8
-49.0
-47.9
-46.8
-45.8
-45.0
-44.4
-43.7
-43.1
-42.3
-41.4
-40.2
-38.8
-37.5
-36.7
-36.3
-36.0
-35.8
-35.3
-35.0
-34.6
-33.9
-33.3
-32.7
-32.2
-32.1
-32.2
-32.7
-33.2
-33.5
-33.6
-33.8
-33.9
-33.9
-33.6
-33.3
-32.8
-32.8
-33.2
-33.8
-34.4
-35.2
-36.0
-36.4
-36.6
-36.6
-36.6
-37.2
-38.1
-39.2
-40.6
-41.6
-42.2
-42.3
-42.0
-41.7
-41.6
-41.6
-41.6
-41.4
-40.8
-39.7
-38.6
-37.4
-36.7
-36.6
-37.2
-38.0
-39.1
-40.2
-40.8
-40.9
-40.8
-40.8
-41.1
-41.6
-42.0
-42.5
-42.6
-42.8
-43.0
-43.1
-43.3
-43.6
-43.6
-43.6
-43.1
-42.5
-42.0
-41.4
