-97.1
-97.1
-93.8
-88.8
-83.7
-80.1
-79.3
-81.7
-87.7
-96.8
-105.6
-110.4
-109.2
-102.5
-92.4
-81.5
-72.2
-65.7
-61.6
-59.4
-59.0
-60.5
-64.3
-69.7
-74.7
-77.5
-77.8
-76.1
-72.8
-69.2
-66.4
-65.5
-66.0
-65.8
-64.1
-60.7
-56.3
-52.9
-52.3
-55.1
-60.1
-64.7
-68.0
-68.3
-65.3
-60.2
-54.5
-49.5
-46.2
-45.9
-48.1
-51.5
-54.0
-55.4
-55.5
-54.0
-50.1
-44.4
-38.8
-35.5
-35.0
-35.3
-33.8
-29.6
-25.2
-23.2
-23.8
-25.1
-25.4
-23.7
-20.4
-15.6
-9.8
-4.2
0.0
2.7
3.9
4.7
6.4
9.4
13.2
17.4
22.3
27.9
33.9
39.5
43.9
47.3
49.8
51.3
51.5
50.7
49.9
51.0
54.9
61.1
68.5
74.7
78.1
77.8
73.7
68.0
62.2
57.3
52.6
47.0
39.2
28.5
15.4
4.1
-2.5
-4.4
-4.4
-5.6
-8.4
-12.2
-16.0
-21.0
-27.1
-33.6
-39.8
-45.0
-48.9
-52.0
-54.3
-55.7
-56.5
-57.4
-59.4
-62.9
-67.7
-73.1
-78.6
-83.2
-86.2
-86.3
-84.2
-80.7
-78.1
-76.5
-75.0
-74.1
-75.6
-80.7
-88.2
-94.0
-95.5
-92.9
-88.1
-84.3
-84.3
-87.7
-92.1
-95.1
-97.2
-100.5
-104.1
-105.3
-102.4
-96.0
-89.3
-85.7
-86.0
-87.7
-87.7
-85.3
-82.0
-80.4
-81.5
-84.6
-88.2
-90.7
-91.9
-92.4
-92.9
-93.3
-93.0
-91.0
-87.4
-83.5
-80.1
-78.1
-77.6
-78.7
-80.4
-82.0
-82.8
-83.2
-83.5
-83.4
-82.0
-79.3
-75.9
-72.8
-71.3
-72.3
-75.5
-78.6
-80.1
-80.3
-80.0
-79.2
-77.6
-75.5
-73.3
-72.2
-73.0
-74.1
-73.9
-72.8
-72.7
-73.9
-75.8
-77.8
-80.7
-83.1
-82.5
-78.3
-72.2
-66.6
-62.1
-59.3
-58.3
-59.7
-63.3
-67.7
-71.4
-74.2
-76.1
-77.3
-78.9
-80.4
-80.9
-78.3
-72.7
-66.6
-63.0
-62.7
-64.3
-65.5
-64.9
-62.4
-60.1
-59.0
-59.9
-61.9
-63.9
-66.0
-68.1
-70.5
-73.0
-74.8
-74.8
-73.0
-70.8
-70.0
-70.5
-69.7
-66.4
-61.9
-57.4
-53.5
-50.4
-48.9
-49.0
-49.8
-49.5
-47.3
-44.4
-43.0
-44.4
-48.1
-51.7
-51.2
-45.6
-37.0
-29.0
-24.4
-25.1
-29.6
-34.7
-37.2
-36.6
-35.8
-37.4
-41.2
-44.8
-46.1
-45.1
-44.4
-45.4
-48.4
-52.1
-55.4
-58.3
-62.5
-69.4
-77.6
-84.2
-86.5
-84.8
-81.2
-78.4
-77.2
-77.8
-79.2
-80.4
-80.0
-77.6
-74.1
-70.5
-69.1
-70.8
-74.1
-76.1
-75.8
-74.8
-74.4
-74.2
-73.4
-71.7
-70.2
-70.3
-71.9
-74.1
-75.3
-75.6
-76.7
-80.6
-87.6
-96.8
-107.0
-117.9
-129.3
-140.9
-152.0
-159.1
-159.0
-149.6
-132.1
-107.8
-77.2
-40.8
0.3
45.1
92.9
141.9
189.9
233.3
270.5
301.1
326.3
345.8
358.5
363.6
361.6
353.1
339.2
320.4
297.9
272.8
245.8
215.9
181.7
144.0
107.6
78.3
58.7
47.5
41.4
38.3
37.0
37.0
37.7
37.0
34.1
28.5
21.2
12.8
2.4
-8.9
-18.5
-23.7
-24.6
-22.7
-19.6
-16.5
-15.6
-17.4
-21.6
-27.2
-34.2
-42.8
-52.0
-60.4
-67.4
-73.7
-80.9
-89.3
-98.0
-105.6
-111.4
-115.6
-118.2
-119.5
-118.5
-115.9
-112.3
-108.7
-106.4
-105.5
-105.2
-104.4
-102.4
-99.4
-96.6
-94.6
-94.1
-96.1
-100.2
-103.9
-104.4
-100.6
-94.9
-89.9
-87.9
-89.1
-91.8
-93.7
-93.3
-91.0
-88.1
-85.1
-81.8
-78.6
-75.8
-73.6
-72.5
-72.7
-73.7
-75.9
-78.9
-82.3
-85.9
-89.5
-93.0
-95.8
-97.9
-98.9
-98.2
-95.4
-91.2
-86.2
-80.0
-72.8
-66.9
-63.8
-62.9
-62.2
-61.0
-59.3
-58.2
-58.0
-58.5
-58.8
-59.0
-59.4
-61.0
-63.2
-64.7
-63.5
-59.4
-55.5
-54.5
-56.0
-57.7
-57.4
-55.2
-52.1
-48.4
-43.9
-39.2
-35.2
-32.4
-30.7
-29.4
-28.2
-26.5
-25.2
-25.2
-27.1
-30.0
-32.1
-30.7
-25.7
-17.9
-9.4
-1.9
3.3
5.5
4.7
1.7
-2.7
-8.4
-14.8
-20.1
-21.8
-17.8
-6.7
10.3
29.4
46.5
58.8
65.5
68.5
69.4
70.0
70.6
71.1
71.1
70.5
69.9
69.1
67.8
65.7
61.8
56.2
49.0
40.3
30.7
22.1
16.7
14.2
12.9
10.6
6.9
1.4
-4.8
-11.7
-17.6
-21.6
-24.1
-26.5
-30.2
-35.8
-43.3
-52.0
-61.1
-68.8
-73.1
-74.2
-74.5
-76.1
-78.4
-80.0
-80.4
-80.9
-81.5
-82.0
-83.2
-87.0
-93.3
-99.9
-102.7
-99.1
-89.9
-78.7
-69.5
-64.6
-64.3
-67.5
-72.0
-75.5
-77.0
-77.0
-76.9
-77.6
-80.4
-85.4
-93.2
-101.7
-107.2
-107.2
-103.0
-97.4
-91.5
-85.7
-80.7
-77.5
-75.9
-76.1
-77.0
-78.6
-80.6
-83.5
-86.8
-89.9
-92.7
-94.6
-94.6
-92.1
-87.4
-82.1
-78.1
-76.4
-76.5
-77.9
-80.4
-84.2
-88.5
-91.6
-91.8
-89.0
-85.4
-83.5
-84.0
-84.6
-83.1
-77.9
-71.6
-66.4
-63.9
-63.2
-62.4
-60.8
-60.2
-62.2
-67.1
-72.3
-75.6
-76.2
-74.8
-72.5
-70.0
-67.5
-64.7
-62.2
-60.8
-61.3
-63.3
-66.1
-68.6
-69.9
-69.2
-67.2
-65.2
-64.6
-65.5
-67.8
-70.5
-72.2
-72.3
-70.6
-67.5
-64.1
-62.5
-64.4
-69.2
-73.9
-75.8
-73.4
-69.2
-66.3
-66.4
-69.2
-73.0
-74.8
-72.5
-65.8
-57.3
-50.4
-48.2
-50.6
-53.5
-53.7
-50.6
-46.8
-45.0
-45.1
-45.6
-45.4
-44.2
-42.6
-40.9
-40.3
-41.1
-43.0
-45.0
-46.2
-46.2
-45.1
-43.1
-40.9
-38.8
-36.4
-33.8
-30.8
-28.8
-28.6
-30.8
-34.6
-37.5
-38.4
-37.4
-36.6
-37.4
-39.1
-40.6
-41.9
-43.6
-45.9
-47.6
-47.9
-47.8
-48.7
-52.3
-59.0
-67.5
-76.2
-83.4
-87.0
-86.0
-81.2
-74.8
-68.6
-63.5
-59.7
-57.6
-56.9
-58.5
-62.7
-68.5
-73.0
-74.7
-74.4
-73.3
-72.5
-72.3
-73.0
-75.1
-78.7
-82.9
-85.3
-83.5
-78.1
-71.3
-66.3
-65.2
-68.3
-75.0
-83.2
-90.5
-95.5
-99.1
-103.6
-111.7
-123.4
-136.6
-147.8
-153.5
-151.5
-139.7
-117.4
-86.0
-47.9
-5.6
38.8
83.7
128.8
173.6
217.1
256.2
287.7
311.5
330.5
348.2
365.3
378.6
383.7
377.6
360.8
336.1
307.3
276.2
244.0
212.8
184.2
158.3
134.4
113.4
97.5
88.4
84.5
83.5
84.2
85.6
85.9
83.5
77.5
67.1
53.2
38.0
23.5
10.8
-0.2
-9.8
-18.4
-26.3
-34.1
-40.6
-45.0
-46.8
-48.1
-51.0
-57.6
-68.5
-82.0
-94.9
-103.8
-107.8
-108.3
-108.0
-109.8
-114.6
-120.4
-123.5
-122.1
-117.1
-111.1
-105.8
-101.9
-100.2
-101.1
-105.0
-110.0
-113.9
-115.3
-114.2
-111.5
-108.7
-107.8
-110.3
-115.1
-119.3
-119.2
-113.4
-103.0
-91.0
-80.6
-73.9
-70.8
-70.5
-71.7
-74.1
-77.2
-80.7
-83.5
-84.6
-84.6
-84.5
-84.9
-86.0
-86.7
-85.9
-82.9
-78.4
-74.5
-72.8
-72.7
-72.8
-72.2
-71.4
-71.1
-71.3
-71.6
-72.0
-72.5
-73.1
-74.2
-75.8
-76.1
-73.4
-68.3
-62.9
-59.3
-58.5
-60.1
-62.5
-63.3
-61.8
-58.2
-54.8
-54.3
-58.5
-65.7
-71.3
-71.1
-65.0
-56.5
-49.3
-45.1
-43.7
-44.7
-47.0
-48.9
-49.0
-47.5
-44.7
-40.8
-36.0
-30.8
-26.8
-24.8
-24.6
-24.9
-24.0
-20.9
-16.2
-10.9
-6.2
-2.2
1.0
4.2
7.2
9.7
11.1
10.4
7.5
2.0
-3.9
-6.7
-2.7
7.5
20.6
32.2
40.6
45.9
49.2
52.3
56.6
62.7
69.2
73.9
75.0
71.7
65.7
59.6
55.9
54.6
54.1
52.4
47.9
39.5
28.8
19.2
13.4
11.7
12.0
12.6
12.0
9.2
4.2
-2.8
-11.2
-20.1
-28.3
-36.1
-42.8
-48.7
-53.2
-56.3
-58.7
-61.3
-64.9
-68.8
-71.6
-72.2
-70.6
-68.9
-68.8
-71.1
-75.1
-79.8
-83.9
-86.8
-87.9
-86.2
-82.0
-76.7
-71.9
-68.1
-65.8
-65.5
-67.5
-70.9
-74.4
-77.3
-80.1
-83.4
-88.4
-95.7
-103.8
-109.2
-109.0
-104.4
-98.8
-95.8
-95.1
-93.5
-88.1
-80.0
-72.2
-67.1
-64.9
-64.6
-65.3
-66.6
-68.3
-70.3
-72.0
-73.4
-74.7
-76.2
-78.7
-82.6
-86.5
-88.8
-88.5
-86.3
-83.5
-80.7
-78.3
-76.5
-76.7
-79.3
-83.7
-87.3
-87.4
-83.5
-77.6
-72.8
-71.1
-73.1
-77.5
-81.4
-82.3
-79.2
-73.7
-68.5
-64.7
-62.4
-61.0
-61.5
-66.1
-74.8
-83.9
-88.8
-88.5
-83.7
-75.9
-66.4
-57.6
-51.8
-50.3
-52.6
-56.8
-60.7
-63.0
-63.9
-64.3
-64.3
-63.6
-62.2
-60.7
-60.4
-61.0
-62.1
-62.4
-62.7
-63.8
-65.7
-67.2
-67.1
-65.3
-63.3
-61.6
-60.8
-61.3
-63.8
-68.1
-73.7
-80.1
-85.7
-89.0
-89.1
-86.3
-81.2
-74.2
-66.1
-58.0
-51.5
-47.3
-46.5
-48.7
-52.4
-55.7
-57.6
-58.0
-57.9
-56.6
-54.6
-52.7
-51.5
-51.3
-52.6
-55.1
-57.1
-56.5
-52.0
-45.3
-38.1
-31.8
-26.8
-23.8
-23.0
-24.1
-26.3
-28.2
-28.6
-27.4
-25.2
-23.7
-23.7
-26.3
-32.1
-39.5
-46.2
-50.7
-54.6
-59.4
-65.8
-71.6
-74.4
-73.3
-69.2
-63.8
-58.8
-56.0
-56.5
-58.7
-60.5
-61.3
-61.9
-63.3
-65.2
-67.4
-70.6
-75.1
-80.4
-84.0
-83.9
-80.0
-74.7
-70.3
-69.9
-74.7
-83.1
-89.8
-90.2
-84.9
-77.3
-70.5
-65.0
-61.6
-60.2
-61.0
-63.6
-67.5
-73.1
-81.8
-95.2
-114.0
-135.8
-156.5
-171.1
-176.7
-173.0
-160.8
-141.4
-115.4
-83.2
-46.2
-6.9
33.0
74.1
117.8
164.3
211.8
257.1
295.5
324.6
343.9
355.7
362.7
365.5
362.4
351.8
333.2
307.5
277.3
245.3
214.0
184.5
157.1
131.9
109.0
88.8
72.3
60.2
52.6
48.7
47.5
48.2
49.3
48.6
44.0
36.9
28.3
19.0
8.3
-3.0
-13.1
-21.0
-26.6
-30.0
-30.7
-29.3
-28.3
-31.0
-37.8
-47.5
-57.6
-66.7
-75.0
-82.8
-90.7
-98.3
-105.3
-111.5
-117.6
-124.3
-130.7
-133.6
-131.3
-125.2
-118.8
-113.9
-109.8
-105.5
-101.1
-97.7
-95.7
-94.4
-93.2
-92.4
-93.7
-97.1
-101.3
-103.8
-103.3
-100.5
-96.8
-93.0
-90.2
-88.4
-88.1
-89.1
-91.0
-92.6
-93.3
-94.3
-98.2
-106.2
-114.8
-117.9
-113.6
-104.7
-96.1
-89.9
-85.7
-82.8
-80.1
-76.5
-71.6
-66.9
-63.8
-62.5
-63.2
-65.8
-70.0
-73.7
-75.1
-74.1
-71.4
-68.6
-65.7
-62.1
-57.6
-53.8
-52.0
-52.3
-53.8
-55.1
-55.5
-55.5
-56.5
-59.0
-62.5
-65.2
-65.2
-62.9
-59.6
-56.0
-52.0
-48.1
-45.3
-44.5
-45.6
-47.5
-49.6
-51.3
-51.8
-49.8
-46.4
-44.0
-44.2
-45.1
-43.9
-39.4
-33.2
-26.6
-19.8
-12.5
-6.4
-2.8
-1.6
-1.7
-3.3
-5.9
-8.0
-6.7
-2.0
3.6
7.8
10.0
11.8
15.6
20.9
26.6
32.5
38.3
43.4
47.9
51.8
55.7
59.7
62.5
63.8
63.2
61.3
59.3
58.0
58.7
60.2
61.6
61.5
58.5
52.4
44.0
34.7
26.0
19.2
14.3
11.1
7.8
3.0
-3.9
-13.4
-24.6
-36.3
-46.5
-53.5
-56.0
-53.4
-47.9
-43.4
-41.2
-41.2
-42.5
-44.4
-46.8
-51.0
-58.0
-68.1
-80.4
-91.8
-97.7
-96.0
-89.1
-80.7
-73.1
-66.9
-62.4
-60.4
-60.8
-62.9
-65.5
-68.3
-71.4
-76.2
-83.9
-93.3
-101.4
-104.7
-102.4
-96.8
-90.9
-86.7
-85.6
-87.1
-89.5
-90.4
-89.5
-87.7
-86.2
-85.3
-85.6
-87.0
-88.7
-89.1
-88.1
-87.0
-87.0
-87.6
-87.3
-85.6
-83.2
-81.4
-80.0
-78.7
-76.5
-73.9
-72.3
-73.3
-77.3
-82.6
-86.2
-86.0
-82.6
-78.1
-74.8
-75.8
-81.8
-91.5
-100.0
-103.3
-99.6
-90.7
-80.7
-71.6
-63.5
-55.7
-48.7
-44.0
-42.3
-43.3
-45.3
-48.1
-52.0
-57.4
-63.8
-69.7
-73.3
-74.2
-73.9
-73.6
-73.9
-74.5
-75.0
-75.6
-76.5
-76.4
-73.0
-66.6
-59.6
-54.3
-52.0
-52.4
-55.2
-59.0
-62.2
-64.7
-66.9
-69.4
-72.2
-74.2
-74.4
-72.5
-70.3
-68.8
-67.8
-66.1
-63.6
-61.3
-61.3
-64.4
-69.2
-71.9
-70.6
-66.3
-61.0
-55.5
-50.6
-47.0
-45.4
-46.2
-48.7
-52.0
-54.9
-56.9
-58.2
-59.0
-58.8
-57.3
-55.7
-55.4
-56.0
-56.2
-55.1
-53.8
-53.4
-52.9
-50.7
-46.5
-41.7
-37.2
-33.9
-32.8
-33.6
-35.3
-35.3
-32.5
-26.9
-21.0
-17.8
-19.2
-24.4
-30.8
-35.2
-35.5
-32.2
-26.8
-22.3
-21.8
-27.2
-37.0
-47.0
-53.4
-55.9
-55.7
-53.2
-49.0
-45.8
-45.8
-49.0
-54.5
-61.5
-69.2
-76.2
-81.2
-83.5
-83.9
-82.3
-78.3
-72.2
-65.3
-59.7
-56.2
-54.9
-55.4
-58.0
-62.9
-69.5
-75.9
-78.7
-76.9
-72.8
-69.9
-70.2
-72.8
-75.9
-77.8
-77.3
-75.0
-71.6
-68.3
-66.4
-68.3
-75.5
-88.2
-104.5
-121.0
-134.6
-143.0
-146.7
-146.5
-141.9
-130.0
-108.7
-77.6
-38.3
7.3
56.6
107.2
155.1
197.2
232.4
262.2
289.9
316.8
341.4
360.4
370.6
371.1
362.1
345.0
321.6
294.4
266.1
237.4
208.3
179.0
150.6
124.1
101.6
83.5
69.2
58.3
52.9
54.0
59.9
66.1
69.4
68.3
62.9
53.7
40.8
26.0
10.8
-2.7
-12.8
-19.0
-22.3
-23.5
-23.5
-23.8
-25.7
-30.7
-38.9
-50.6
-65.8
-82.9
-98.2
-109.4
-117.1
-122.3
-124.4
-123.5
-121.2
-117.4
-111.8
-104.4
-97.4
-92.9
-91.5
-93.2
-97.2
-102.2
-106.6
-109.0
-109.8
-109.0
-107.6
-105.6
-103.8
-102.7
-103.0
-104.7
-105.8
-104.2
-100.2
-95.8
-93.0
-91.8
-91.2
-89.8
-86.8
-82.8
-79.2
-77.3
-77.0
-77.2
-77.2
-77.2
-77.2
-77.5
-79.0
-82.6
-86.8
-89.5
-89.6
-87.9
-84.5
-79.0
-71.9
-65.0
-61.1
-61.9
-67.1
-74.1
-78.3
-77.0
-70.5
-61.8
-54.1
-50.1
-50.3
-53.2
-56.6
-58.7
-59.0
-58.0
-56.2
-53.2
-49.6
-46.7
-45.6
-46.8
-49.9
-53.2
-54.9
-54.0
-51.0
-48.1
-46.7
-46.2
-45.3
-42.8
-38.9
-33.9
-28.3
-23.0
-19.5
-18.2
-19.3
-21.2
-21.8
-20.4
-17.4
-15.1
-14.5
-15.1
-15.4
-14.6
-12.9
-11.5
-10.3
-7.2
-1.0
7.3
15.9
22.4
25.7
26.2
26.3
28.6
32.5
36.4
40.5
45.9
53.1
60.4
66.1
68.9
68.6
67.1
66.3
67.4
69.7
71.3
70.9
67.8
63.2
58.5
55.1
52.6
49.6
45.6
41.6
37.8
33.3
27.1
19.2
10.0
0.3
-9.2
-17.9
-24.8
-30.8
-39.4
-52.0
-65.3
-73.4
-72.7
-64.7
-54.9
-48.4
-46.5
-47.9
-50.6
-53.5
-56.6
-58.8
-59.7
-60.5
-63.0
-68.3
-74.5
-78.6
-79.0
-77.3
-75.5
-74.2
-73.6
-73.4
-73.6
-74.5
-77.0
-81.4
-86.2
-89.3
-89.3
-87.7
-87.7
-91.2
-96.0
-98.0
-95.8
-91.6
-88.7
-87.9
-89.1
-91.0
-91.8
-90.1
-85.7
-80.3
-75.5
-72.5
-72.0
-74.7
-80.3
-87.4
-93.3
-96.3
-96.3
-94.3
-91.3
-88.1
-84.6
-81.5
-80.4
-81.5
-82.3
-80.4
-76.2
-71.6
-69.1
-69.2
-71.6
-74.7
-78.3
-82.3
-85.9
-86.5
-83.4
-78.3
-73.6
-70.9
-70.2
-70.6
-71.4
-72.0
-73.0
-74.2
-75.5
-76.4
-76.9
-77.0
-77.5
-78.1
-77.5
-75.1
-72.8
-73.0
-75.6
-78.1
-78.4
-76.2
-73.9
-73.4
-74.5
-75.3
-76.1
-80.1
-87.9
-95.4
-96.3
-88.8
-77.0
-65.7
-57.6
-53.1
-51.3
-51.2
-51.3
-52.1
-53.7
-56.3
-60.2
-65.5
-71.1
-75.3
-77.5
-78.7
-80.0
-81.4
-82.3
-81.7
-79.3
-75.5
-71.1
-67.4
-64.9
-63.8
-63.9
-64.6
-66.1
-69.1
-73.3
-77.6
-80.0
-78.4
-72.5
-64.7
-58.5
-56.3
-57.6
-58.8
-57.1
-51.3
-43.1
-34.9
-28.6
-25.4
-24.8
-25.7
-27.1
-28.3
-29.6
-30.5
-31.4
-32.1
-32.5
-33.2
-34.7
-37.5
-40.2
-41.2
-40.3
-38.8
-38.3
-40.2
-44.0
-48.7
-52.1
-53.1
-52.1
-50.7
-51.5
-55.9
-63.8
-73.1
-81.2
-85.9
-87.3
-86.7
-84.9
-82.5
-80.4
-79.0
-77.0
-73.4
-69.1
-65.8
-64.4
-65.2
-68.3
-73.0
-77.5
-80.4
-80.7
-77.9
-73.3
-68.6
-65.2
-63.9
-64.4
-66.4
-70.0
-74.4
-77.9
-79.5
-79.0
-78.3
-78.9
-82.5
-90.1
-102.7
-119.5
-138.3
-156.6
-170.9
-177.3
-172.0
-152.9
-121.2
-79.8
-32.5
18.2
70.8
122.7
170.6
212.5
248.4
279.3
306.4
329.7
347.8
358.7
361.0
354.9
342.3
325.4
305.6
284.5
262.7
239.8
215.4
189.1
162.1
136.3
113.2
93.8
77.9
65.5
56.2
49.2
44.0
40.0
37.0
34.7
31.9
26.9
19.5
10.4
1.1
-8.0
-16.5
-22.7
-25.2
-24.0
-20.4
-17.8
-19.0
-26.3
-37.4
-48.4
-57.3
-63.9
-69.5
-75.5
-83.2
-92.3
-101.4
-110.4
-119.0
-125.8
-130.0
-132.4
-132.4
-128.2
-119.9
-109.8
-100.8
-94.4
-91.3
-91.8
-95.1
-99.4
-103.0
-104.1
-103.3
-101.6
-99.7
-97.2
-95.2
-95.2
-97.9
-101.4
-103.9
-105.0
-105.6
-105.9
-104.5
-100.6
-94.9
-88.5
-83.7
-81.7
-81.8
-81.8
-80.0
-77.0
-75.6
-77.6
-82.5
-87.3
-89.8
-89.0
-85.7
-80.9
-75.6
-71.3
-69.1
-68.9
-69.5
-69.1
-66.9
-64.6
-64.1
-66.4
-70.0
-71.9
-71.4
-69.5
-67.2
-63.9
-59.7
-56.2
-54.8
-56.0
-58.8
-61.3
-62.4
-62.7
-62.7
-64.3
-68.0
-70.6
-68.3
-60.2
-49.8
-40.3
-33.5
-29.0
-26.6
-27.1
-30.2
-34.4
-38.1
-40.5
-41.9
-42.2
-40.2
-35.2
-28.5
-22.7
-18.5
-15.7
-13.9
-12.2
-8.9
-3.9
1.3
5.3
7.3
7.8
7.0
6.7
8.0
11.5
17.0
23.8
30.8
35.3
36.6
36.6
37.7
41.6
46.8
52.1
56.0
59.1
61.9
65.2
69.2
73.4
76.4
75.0
68.5
58.0
47.0
39.1
36.4
38.3
40.8
40.2
35.6
29.0
22.3
15.3
8.1
1.3
-4.7
-10.6
-17.4
-25.8
-35.0
-43.7
-49.9
-52.7
-53.7
-54.9
-57.1
-59.7
-62.4
-64.4
-65.3
-65.0
-64.4
-63.5
-62.4
-61.0
-59.9
-60.1
-62.2
-66.1
-71.3
-76.5
-80.3
-81.7
-82.0
-83.9
-88.7
-95.8
-101.4
-101.7
-96.6
-89.3
-83.2
-80.6
-80.9
-83.4
-87.7
-92.9
-97.2
-98.0
-94.6
-88.7
-83.4
-81.1
-82.3
-85.1
-87.1
-86.7
-83.4
-78.4
-73.3
-69.9
-69.2
-71.6
-75.5
-79.0
-81.1
-81.1
-80.6
-80.7
-81.2
-81.4
-81.1
-80.7
-81.1
-81.5
-82.0
-82.6
-84.0
-85.7
-87.3
-89.3
-93.0
-97.2
-98.6
-95.5
-89.5
-82.8
-76.1
-69.7
-65.0
-63.8
-66.0
-70.6
-76.7
-83.5
-89.0
-90.9
-88.2
-82.5
-76.1
-70.8
-66.7
-63.6
-61.0
-58.7
-56.2
-53.5
-51.7
-51.2
-52.1
-54.1
-56.9
-60.4
-64.3
-67.7
-70.0
-71.3
-72.3
-73.7
-74.2
-73.6
-72.3
-71.1
-70.6
-70.5
-70.0
-69.4
-70.3
-73.7
-78.6
-82.5
-84.8
-85.6
-82.9
-75.6
-64.4
-53.2
-44.7
-40.0
-38.8
-40.3
-44.7
-51.2
-59.3
-66.0
-68.6
-66.7
-62.2
-57.3
-53.1
-50.6
-49.6
-49.8
-50.9
-52.7
-55.1
-57.1
-57.9
-56.9
-55.4
-53.7
-51.5
-48.4
-43.4
-36.1
-28.8
-24.6
-26.5
-34.2
-43.6
-49.2
-48.4
-43.7
-38.6
-33.8
-29.4
-25.8
-25.2
-27.6
-31.4
-35.6
-40.3
-44.7
-48.4
-50.3
-50.4
-49.9
-50.4
-52.3
-55.1
-58.7
-63.5
-69.7
-75.6
-78.7
-78.4
-75.1
-71.1
-68.0
-66.3
-65.5
-65.3
-66.0
-68.0
-72.0
-76.4
-78.9
-78.1
-74.8
-70.9
-68.6
-68.8
-72.8
-80.6
-90.5
-98.8
-100.8
-94.7
-83.5
-72.3
-66.1
-66.4
-71.7
-80.1
-91.0
-104.2
-118.2
-131.0
-140.0
-144.2
-144.2
-139.5
-127.7
-105.0
-70.3
-25.5
25.4
78.9
130.7
178.1
220.7
258.5
291.8
320.6
344.5
361.9
371.6
372.7
365.2
350.3
330.2
307.0
281.1
251.8
218.8
183.4
148.1
117.6
94.4
78.9
68.0
59.3
52.1
47.9
46.7
47.0
47.2
45.8
42.8
38.4
32.2
24.3
14.8
3.8
-9.4
-22.9
-31.8
-32.2
-25.1
-15.4
-8.3
-6.7
-12.3
-24.4
-40.0
-54.9
-66.7
-74.7
-80.0
-84.8
-90.9
-98.9
-108.0
-115.6
-118.7
-117.4
-115.3
-116.4
-121.0
-125.7
-126.3
-122.1
-115.7
-109.7
-105.0
-102.0
-100.5
-100.2
-99.4
-96.9
-92.9
-89.0
-87.0
-87.0
-88.4
-90.2
-91.8
-93.0
-94.3
-95.8
-97.5
-99.9
-103.6
-108.7
-113.1
-113.2
-108.6
-101.3
-93.8
-87.4
-82.5
-78.9
-76.5
-75.3
-75.0
-75.1
-75.0
-74.8
-75.6
-78.6
-83.7
-90.1
-96.0
-99.4
-98.9
-95.5
-91.0
-86.7
-83.7
-83.1
-83.9
-83.7
-79.8
-72.0
-62.4
-53.2
-46.7
-44.2
-45.9
-50.7
-56.6
-62.4
-67.8
-72.3
-74.7
-74.2
-72.2
-69.4
-66.3
-62.4
-56.9
-50.7
-44.8
-40.5
-38.6
-38.4
-39.1
-39.5
-39.8
-39.8
-39.8
-39.5
-38.9
-37.5
-35.5
-33.0
-29.9
-25.8
-21.0
-16.2
-13.4
-14.5
-18.7
-23.0
-24.3
-21.8
-16.2
-9.5
-3.9
-0.5
2.5
8.7
19.3
31.9
43.6
52.6
58.5
61.8
62.2
60.7
58.0
54.5
49.2
43.3
40.0
41.7
46.8
52.1
55.7
57.1
57.3
56.5
53.4
46.7
37.0
26.8
18.2
11.2
3.9
-3.8
-11.5
-18.1
-22.3
-24.8
-26.9
-30.7
-36.6
-43.7
-51.2
-57.9
-63.3
-67.1
-68.9
-69.9
-71.1
-74.1
-78.4
-82.9
-86.0
-87.9
-89.5
-90.7
-90.5
-87.7
-82.6
-77.2
-74.5
-76.4
-80.0
-82.1
-81.7
-80.3
-79.7
-80.0
-80.3
-79.3
-77.5
-75.6
-75.0
-75.6
-77.2
-78.6
-80.1
-83.5
-89.3
-95.7
-98.8
-97.4
-93.0
-88.5
-85.1
-82.6
-80.7
-80.1
-82.6
-88.8
-96.8
-102.2
-102.4
-97.9
-92.3
-89.5
-89.1
-89.1
-87.9
-85.1
-80.9
-75.9
-71.4
-68.3
-67.7
-70.3
-76.2
-83.5
-89.8
-92.3
-90.7
-86.5
-82.3
-79.0
-77.5
-77.8
-79.2
-79.8
-77.9
-73.4
-67.7
-62.9
-59.9
-59.3
-60.7
-64.3
-69.9
-75.5
-78.9
-78.7
-76.9
-75.9
-76.4
-76.7
-76.5
-77.2
-78.9
-80.4
-79.5
-76.2
-72.5
-70.0
-68.0
-64.9
-60.1
-54.9
-51.0
-50.4
-54.0
-61.0
-67.8
-71.7
-72.2
-70.6
-67.8
-65.3
-65.3
-68.1
-70.8
-70.5
-67.2
-63.2
-60.1
-58.2
-56.5
-54.3
-52.4
-52.0
-53.4
-55.7
-57.6
-57.6
-56.0
-53.5
-51.5
-52.0
-56.3
-62.5
-66.7
-66.0
-61.0
-54.8
-50.1
-47.6
-47.0
-47.2
-46.4
-43.3
-38.6
-35.2
-35.2
-37.7
-39.5
-38.6
-34.9
-30.4
-26.9
-25.4
-25.2
-26.2
-27.7
-30.0
-32.7
-34.7
-35.2
-34.2
-33.0
-32.7
-34.9
-40.0
-47.8
-57.1
-66.6
-74.5
-78.9
-79.2
-77.5
-75.9
-75.5
-76.1
-77.3
-78.6
-79.0
-78.4
-77.2
-77.2
-79.2
-82.0
-83.9
-84.0
-83.5
-83.4
-82.8
-80.7
-77.2
-72.8
-69.9
-70.9
-75.8
-82.1
-86.5
-87.0
-84.2
-80.6
-78.9
-79.8
-83.5
-90.9
-102.0
-116.4
-131.0
-143.1
-150.9
-153.5
-149.5
-136.3
-112.3
-78.6
-36.9
10.0
59.3
108.3
155.5
200.0
241.1
277.3
307.3
330.5
346.8
357.3
362.4
361.0
351.8
336.4
319.2
302.8
285.9
264.9
239.2
211.1
183.4
158.0
135.8
115.4
95.5
76.1
59.9
50.1
47.9
51.0
56.2
59.7
59.9
55.2
45.8
32.5
17.8
3.6
-9.0
-20.6
-30.0
-36.0
-37.8
-37.7
-38.6
-41.7
-46.8
-52.3
-58.5
-66.4
-77.2
-89.3
-100.6
-109.5
-115.7
-121.0
-127.1
-133.5
-137.8
-138.6
-136.6
-133.0
-129.4
-126.8
-124.3
-120.4
-114.8
-108.6
-104.2
-104.2
-110.3
-119.6
-126.6
-127.2
-122.1
-115.1
-108.4
-103.4
-100.3
-98.6
-97.9
-98.3
-99.9
-102.0
-102.8
-101.6
-99.6
-98.9
-100.2
-101.4
-100.3
-96.9
-92.4
-88.5
-85.9
-84.0
-82.8
-82.0
-82.3
-83.5
-85.4
-87.1
-88.8
-91.9
-95.7
-97.9
-96.6
-92.3
-86.5
-80.1
-74.8
-72.0
-71.6
-71.9
-72.8
-74.4
-76.2
-77.5
-77.8
-77.3
-75.0
-70.5
-64.3
-57.9
-52.1
-47.6
-44.4
-43.3
-44.5
-48.2
-53.8
-60.4
-66.3
-70.6
-73.0
-72.8
-70.8
-66.9
-62.2
-57.1
-51.8
-46.7
-42.2
-37.4
-32.5
-28.3
-26.5
-27.7
-31.3
-34.4
-34.6
-31.1
-25.4
-19.2
-14.2
-10.9
-9.0
-7.8
-7.2
-7.2
-7.6
-7.0
-4.4
0.2
6.7
14.6
22.9
29.3
32.4
33.2
34.6
38.6
45.0
52.6
59.0
62.1
60.8
57.4
54.1
53.1
53.5
54.5
54.9
54.6
53.7
51.7
47.5
39.7
27.9
13.6
1.0
-6.1
-7.3
-5.8
-5.5
-8.6
-14.3
-22.1
-31.1
-41.2
-51.0
-59.9
-66.4
-70.0
-69.7
-66.9
-63.8
-61.8
-61.3
-62.5
-65.8
-71.7
-79.8
-88.5
-95.2
-97.5
-95.2
-89.8
-83.9
-79.5
-76.9
-74.4
-71.9
-70.3
-71.1
-73.3
-75.5
-76.5
-77.2
-78.6
-81.4
-84.9
-88.4
-91.3
-93.7
-95.7
-97.5
-99.3
-99.6
-97.5
-94.0
-91.0
-89.6
-88.7
-87.6
-86.8
-86.2
-84.9
-83.5
-82.5
-81.8
-80.9
-80.0
-79.5
-80.1
-81.8
-84.0
-85.7
-86.5
-87.0
-88.1
-89.9
-91.6
-92.1
-91.8
-92.1
-92.6
-91.6
-89.3
-87.4
-86.7
-85.1
-81.1
-75.6
-70.9
-68.1
-66.4
-64.3
-61.3
-58.3
-57.9
-61.6
-70.0
-80.0
-87.0
-88.1
-84.2
-78.9
-75.9
-75.8
-75.6
-73.0
-67.7
-61.8
-57.4
-55.4
-55.2
-56.6
-58.8
-60.8
-62.2
-63.3
-64.1
-64.9
-65.5
-66.1
-67.8
-71.9
-77.9
-83.2
-85.6
-85.6
-84.6
-82.9
-79.7
-75.5
-72.5
-71.6
-71.6
-70.8
-68.6
-66.0
-63.6
-61.5
-58.8
-55.1
-51.2
-48.7
-49.2
-53.7
-61.1
-69.1
-74.4
-75.1
-70.9
-63.3
-54.8
-48.1
-44.2
-43.1
-44.0
-46.8
-50.6
-54.5
-57.3
-58.5
-57.9
-56.0
-53.7
-52.3
-52.6
-55.1
-57.9
-58.7
-56.0
-51.7
-47.8
-46.4
-47.3
-48.1
-46.2
-41.4
-36.3
-33.2
-33.0
-35.3
-38.9
-42.2
-43.4
-41.1
-35.0
-26.9
-19.3
-15.0
-14.3
-17.0
-21.3
-26.6
-32.1
-37.4
-42.5
-47.8
-53.7
-59.9
-66.0
-70.9
-74.5
-76.2
-76.1
-75.1
-74.2
-74.7
-76.9
-79.8
-82.1
-82.6
-81.7
-80.3
-79.2
-78.3
-76.9
-75.1
-75.1
-77.6
-81.1
-82.3
-81.1
-80.1
-81.5
-84.5
-87.0
-87.1
-84.6
-80.6
-76.5
-74.5
-75.8
-80.6
-89.1
-101.0
-114.0
-126.5
-137.0
-144.0
-145.9
-143.0
-134.9
-119.8
-96.0
-63.6
-24.9
18.4
65.0
113.6
161.6
205.9
244.7
276.7
303.0
324.3
341.1
353.4
360.4
360.8
352.4
335.0
310.8
284.0
258.3
234.6
210.3
183.4
154.6
126.8
102.0
81.1
65.0
56.0
55.2
61.0
69.1
74.5
74.7
70.5
64.1
56.5
47.0
33.9
16.0
-5.0
-25.1
-38.8
-43.7
-42.2
-38.0
-35.3
-36.3
-40.8
-48.1
-57.1
-66.4
-75.0
-82.6
-89.3
-95.2
-101.3
-108.3
-117.3
-126.8
-133.5
-134.2
-129.1
-122.0
-116.5
-114.5
-115.4
-116.7
-115.9
-111.8
-105.8
-99.9
-95.5
-92.7
-91.6
-93.5
-99.6
-108.9
-118.1
-122.7
-120.9
-115.4
-111.1
-109.7
-108.9
-106.1
-100.2
-93.0
-85.9
-79.2
-73.3
-69.1
-67.8
-69.4
-72.0
-74.5
-76.2
-77.2
-76.9
-75.9
-75.3
-76.4
-79.3
-83.1
-86.0
-86.8
-84.9
-80.9
-75.9
-71.1
-68.3
-68.1
-70.2
-72.2
-72.7
-71.7
-71.1
-72.2
-74.8
-77.3
-77.9
-76.2
-72.0
-66.4
-60.8
-56.9
-56.2
-58.3
-61.5
-62.4
-59.4
-53.4
-46.7
-42.0
-40.0
-40.6
-43.3
-46.5
-48.4
-47.8
-45.9
-45.6
-47.5
-49.0
-47.9
-43.0
-35.5
-27.1
-19.6
-13.9
-10.1
-7.8
-6.2
-5.0
-3.3
-1.6
-0.5
-2.0
-7.2
-13.2
-15.6
-10.8
-0.5
10.8
18.8
21.2
19.2
16.2
16.7
21.6
29.9
39.1
46.7
51.3
53.7
55.7
59.0
62.9
66.4
68.5
69.5
69.7
68.9
66.4
62.1
55.4
46.8
38.3
31.8
28.5
27.2
26.0
22.7
16.8
8.7
0.3
-6.9
-12.2
-15.6
-18.4
-21.3
-25.2
-30.2
-35.6
-41.1
-46.4
-52.0
-58.2
-64.6
-69.7
-73.3
-76.4
-80.3
-83.9
-84.2
-79.8
-73.4
-68.5
-66.6
-67.4
-69.2
-70.9
-72.3
-73.3
-74.1
-73.9
-73.3
-74.1
-76.9
-80.7
-84.3
-86.5
-86.3
-84.0
-80.7
-78.1
-76.5
-75.9
-76.2
-77.6
-80.7
-85.7
-90.7
-93.8
-94.1
-92.7
-90.2
-87.1
-83.5
-80.6
-79.3
-80.4
-83.9
-89.1
-95.1
-99.1
-98.5
-93.2
-86.2
-80.3
-76.2
-73.9
-73.6
-75.1
-77.2
-78.3
-79.2
-80.1
-80.7
-80.3
-78.9
-77.6
-76.5
-75.5
-74.4
-74.7
-78.1
-85.3
-93.0
-97.9
-97.1
-91.3
-82.5
-73.7
-67.4
-64.9
-66.9
-72.7
-78.9
-81.5
-78.9
-72.2
-65.3
-60.7
-59.1
-60.1
-62.2
-65.0
-68.0
-70.0
-69.7
-67.7
-65.2
-63.9
-63.9
-64.3
-63.6
-62.1
-61.1
-61.8
-63.3
-64.4
-65.7
-67.5
-70.0
-71.7
-71.1
-67.4
-61.3
-54.9
-50.3
-49.2
-51.5
-56.3
-61.3
-65.0
-67.4
-68.5
-69.1
-70.3
-71.6
-71.7
-69.5
-65.8
-62.9
-61.9
-62.4
-63.3
-64.7
-67.5
-71.6
-75.1
-76.2
-73.4
-66.3
-56.3
-46.1
-38.1
-33.3
-31.4
-31.8
-33.9
-37.5
-41.4
-45.1
-48.7
-51.0
-51.3
-49.5
-46.2
-41.9
-36.3
-30.7
-26.3
-24.1
-24.0
-25.2
-27.4
-30.8
-35.6
-40.9
-44.2
-44.5
-43.1
-43.9
-47.6
-51.2
-51.8
-48.9
-44.0
-39.1
-35.2
-33.6
-35.3
-40.0
-47.5
-57.4
-69.1
-80.4
-89.6
-95.2
-96.5
-94.6
-91.6
-88.2
-83.4
-76.5
-68.9
-62.9
-59.4
-58.8
-59.7
-61.1
-62.7
-64.6
-67.4
-71.6
-77.2
-81.8
-83.4
-81.5
-78.3
-75.8
-75.0
-75.3
-75.3
-74.4
-73.3
-73.4
-75.9
-82.0
-91.9
-105.2
-120.2
-135.2
-147.9
-156.9
-160.7
-156.9
-143.7
-120.7
-88.7
-48.9
-3.3
45.9
96.1
143.9
185.4
219.2
247.3
272.8
297.1
319.8
339.4
353.7
359.4
355.4
343.0
324.1
300.8
274.1
245.6
217.6
190.9
165.8
142.8
122.1
104.4
89.3
76.5
66.9
61.5
59.9
59.6
57.7
53.1
45.3
35.6
26.2
18.1
10.8
2.7
-5.9
-13.9
-18.8
-20.4
-20.7
-21.8
-24.8
-29.4
-35.3
-43.4
-54.1
-67.7
-83.2
-98.9
-111.7
-117.1
-114.5
-107.0
-99.6
-95.1
-94.7
-97.5
-101.9
-106.2
-109.7
-111.1
-110.1
-107.6
-104.5
-101.4
-98.5
-95.4
-92.9
-91.5
-90.7
-90.9
-91.5
-92.4
-92.6
-92.1
-91.9
-92.7
-94.6
-96.9
-99.3
-101.4
-103.9
-106.2
-106.2
-102.8
-98.5
-96.6
-97.1
-96.5
-92.3
-84.3
-74.5
-64.7
-56.5
-51.0
-49.2
-50.9
-55.1
-59.9
-63.5
-65.0
-65.0
-64.6
-64.4
-65.2
-67.2
-70.0
-73.0
-75.0
-75.9
-76.7
-77.9
-77.8
-74.5
-68.8
-62.9
-58.2
-54.8
-52.4
-51.7
-52.1
-53.7
-56.8
-61.1
-65.2
-66.3
-63.9
-59.1
-53.8
-50.3
-50.4
-53.8
-58.0
-60.7
-60.2
-56.0
-49.0
-40.5
-31.6
-23.5
-16.8
-11.7
-7.5
-4.1
-1.7
-0.5
-0.3
-1.9
-5.0
-9.0
-13.2
-16.4
-16.5
-12.0
-3.1
6.9
14.6
19.0
21.3
23.8
27.4
31.9
36.3
39.5
40.8
40.3
38.8
37.7
38.8
42.2
47.6
53.2
56.0
54.6
50.4
46.4
45.0
45.9
46.5
45.3
42.6
37.8
29.7
19.6
12.9
12.5
15.4
16.8
14.2
9.2
4.2
0.0
-3.9
-7.8
-11.8
-16.4
-22.0
-28.5
-36.3
-44.4
-52.3
-60.4
-68.8
-76.2
-80.7
-80.6
-76.9
-72.0
-68.6
-67.2
-68.0
-70.3
-73.0
-75.0
-76.2
-77.6
-80.4
-84.2
-87.6
-89.3
-89.5
-88.5
-87.7
-87.4
-87.1
-87.0
-86.7
-87.3
-89.5
-93.0
-97.4
-102.8
-108.1
-110.3
-108.3
-104.4
-100.8
-98.5
-95.4
-89.9
-82.9
-76.1
-71.4
-68.9
-68.8
-70.0
-72.0
-74.2
-77.2
-81.4
-86.2
-90.4
-94.0
-97.2
-99.6
-99.3
-94.6
-86.5
-77.8
-71.3
-67.8
-67.1
-67.4
-68.0
-68.5
-68.6
-69.2
-71.1
-74.1
-78.3
-82.5
-85.9
-87.9
-88.7
-88.7
-89.1
-91.3
-95.5
-99.6
-99.6
-94.1
-84.8
-74.4
-64.6
-56.9
-52.1
-50.3
-50.4
-51.2
-51.7
-52.0
-53.2
-56.0
-60.1
-63.8
-66.4
-68.5
-69.7
-69.7
-67.8
-65.5
-63.8
-63.3
-63.3
-63.3
-63.2
-63.0
-63.2
-64.6
-68.1
-73.9
-80.6
-84.6
-83.7
-77.6
-69.1
-61.0
-56.0
-54.9
-56.8
-59.9
-63.5
-66.1
-66.7
-65.3
-63.0
-60.8
-58.8
-57.7
-59.1
-63.8
-68.9
-70.5
-68.0
-64.7
-63.2
-63.9
-64.6
-62.5
-56.6
-49.2
-43.1
-40.3
-40.8
-43.4
-47.3
-51.7
-54.9
-56.3
-55.7
-54.6
-54.5
-56.6
-61.0
-65.5
-66.6
-62.2
-54.3
-45.9
-39.4
-35.5
-34.1
-34.1
-33.9
-33.3
-31.9
-29.6
-26.8
-25.4
-26.6
-29.3
-31.3
-32.2
-32.5
-33.5
-35.3
-38.3
-44.4
-53.5
-62.2
-66.0
-63.6
-56.8
-48.1
-40.2
-35.3
-35.3
-39.1
-44.4
-49.6
-54.0
-57.9
-62.2
-67.5
-73.7
-79.5
-83.1
-84.3
-83.5
-81.8
-79.5
-76.4
-72.8
-70.5
-71.9
-76.9
-81.7
-82.3
-78.7
-73.6
-70.5
-70.8
-73.6
-76.7
-77.6
-75.6
-72.0
-68.8
-66.6
-66.1
-68.8
-76.2
-89.5
-106.9
-124.4
-138.9
-148.4
-152.4
-149.9
-140.6
-124.3
-101.7
-73.4
-38.9
2.4
49.2
98.2
145.8
189.5
228.0
261.0
288.5
311.1
328.2
339.4
344.8
344.4
338.8
328.3
313.4
293.0
267.1
236.3
201.9
166.3
133.5
107.0
88.2
76.1
69.1
67.1
69.1
73.3
76.5
76.2
71.9
64.3
53.8
40.9
26.2
11.7
-1.4
-13.2
-23.4
-30.2
-33.0
-31.4
-26.0
-18.7
-13.1
-12.0
-17.3
-27.7
-41.7
-57.1
-72.5
-85.9
-95.8
-102.0
-105.8
-109.0
-112.6
-115.6
-115.6
-112.5
-108.4
-105.3
-103.1
-100.3
-96.9
-93.8
-91.8
-92.9
-98.2
-105.6
-110.6
-109.5
-103.3
-95.2
-88.1
-82.1
-77.6
-75.1
-75.3
-77.6
-82.1
-88.4
-95.2
-100.6
-102.7
-100.3
-95.8
-91.2
-87.3
-83.2
-78.7
-74.1
-70.3
-67.4
-64.7
-62.2
-60.2
-59.9
-61.5
-63.5
-64.6
-64.9
-64.7
-64.4
-63.6
-62.9
-61.6
-59.9
-57.7
-55.5
-54.0
-53.4
-54.1
-57.3
-63.8
-72.3
-78.4
-78.4
-72.7
-64.6
-56.5
-49.5
-44.0
-40.2
-38.3
-38.0
-38.9
-40.8
-43.4
-47.0
-51.7
-57.4
-62.2
-63.0
-58.5
-49.9
-40.5
-32.5
-28.8
-29.9
-34.1
-37.4
-37.4
-34.1
-29.3
-25.1
-22.0
-19.2
-15.6
-10.8
-5.2
-0.6
1.3
0.3
-1.1
-1.0
1.7
5.6
8.9
11.2
14.6
20.1
26.5
31.4
33.6
33.5
33.5
36.1
41.4
47.6
52.6
55.5
56.5
56.0
55.5
56.0
57.9
60.2
61.8
62.2
61.6
59.7
56.5
52.1
47.6
44.2
42.5
41.6
38.8
31.9
22.6
14.0
8.0
3.6
-1.0
-5.9
-10.8
-14.8
-18.1
-21.8
-26.9
-33.6
-40.6
-47.0
-52.1
-56.2
-59.0
-60.7
-62.2
-64.1
-66.1
-68.0
-69.9
-72.3
-76.5
-82.1
-86.5
-87.6
-84.9
-80.7
-77.3
-75.6
-74.8
-74.4
-74.2
-74.5
-74.2
-72.8
-71.4
-70.8
-71.4
-72.2
-73.0
-75.0
-79.8
-88.1
-96.8
-102.2
-103.9
-102.7
-99.7
-95.5
-91.0
-86.3
-80.9
-74.7
-68.6
-63.2
-59.7
-59.1
-61.3
-65.5
-70.8
-75.6
-78.9
-80.6
-81.8
-83.5
-86.3
-89.0
-89.5
-87.9
-85.4
-83.2
-81.8
-81.5
-83.2
-86.7
-89.6
-90.4
-89.1
-86.8
-84.2
-81.2
-78.1
-74.4
-70.6
-67.8
-67.5
-71.1
-78.9
-88.1
-94.7
-96.0
-91.2
-82.3
-71.9
-62.2
-54.6
-49.8
-48.2
-49.3
-52.6
-57.4
-63.0
-67.8
-70.6
-71.1
-69.4
-67.1
-65.7
-65.5
-66.3
-66.9
-66.7
-65.5
-63.9
-62.5
-62.1
-63.3
-66.6
-70.5
-73.6
-74.5
-73.3
-71.4
-70.3
-70.9
-73.1
-77.5
-83.4
-88.1
-88.1
-82.3
-73.4
-65.3
-60.7
-59.7
-61.0
-62.4
-63.3
-63.9
-63.9
-63.6
-63.6
-64.7
-67.1
-70.6
-75.9
-80.9
-82.1
-77.3
-67.8
-56.9
-47.3
-40.2
-35.3
-32.5
-31.4
-31.9
-33.8
-37.0
-40.9
-44.5
-47.2
-48.6
-48.7
-47.9
-47.5
-48.1
-49.5
-49.9
-48.6
-45.0
-40.5
-37.2
-36.4
-37.4
-37.2
-34.9
-31.1
-28.5
-27.7
-28.0
-28.2
-28.0
-27.9
-28.3
-30.8
-35.8
-41.7
-45.8
-46.8
-46.5
-47.2
-50.7
-58.3
-69.7
-82.8
-93.8
-99.1
-97.5
-91.5
-84.6
-78.3
-72.5
-67.2
-62.5
-58.8
-56.2
-54.6
-54.3
-56.2
-60.4
-65.5
-70.2
-73.6
-75.3
-76.2
-77.9
-80.4
-82.5
-82.6
-81.2
-79.8
-79.3
-80.3
-81.2
-80.7
-79.2
-78.3
-79.2
-82.3
-87.6
-96.5
-109.7
-126.6
-144.7
-161.1
-173.6
-179.0
-174.8
-159.9
-135.6
-103.6
-65.2
-22.3
21.8
66.7
114.2
163.8
211.7
254.0
289.1
317.6
339.5
354.8
362.5
362.5
356.6
346.4
331.6
310.8
283.7
252.3
219.8
188.1
158.7
132.1
108.6
88.5
72.2
59.7
51.0
46.1
43.9
43.4
42.3
39.8
35.5
29.3
20.2
8.6
-4.7
-16.8
-25.2
-29.6
-31.0
-31.0
-31.0
-30.8
-30.0
-29.3
-29.9
-32.8
-38.1
-46.5
-58.2
-72.2
-86.3
-98.5
-107.0
-110.9
-111.1
-109.8
-109.0
-109.2
-109.2
-108.0
-105.2
-101.7
-99.1
-98.2
-98.8
-101.1
-104.8
-108.1
-109.4
-108.1
-105.2
-101.9
-98.3
-94.7
-91.6
-89.6
-88.5
-88.1
-87.7
-87.6
-87.7
-88.5
-90.5
-94.0
-98.3
-103.0
-107.8
-112.5
-115.4
-114.0
-108.3
-100.0
-92.1
-85.6
-80.9
-78.7
-79.7
-83.5
-88.5
-91.9
-91.9
-88.8
-83.5
-78.3
-74.2
-72.0
-71.6
-71.3
-70.3
-69.1
-68.6
-68.3
-67.2
-64.7
-61.9
-59.9
-59.1
-59.9
-61.5
-62.9
-63.3
-63.0
-61.8
-59.6
-57.1
-55.2
-55.2
-57.1
-60.1
-62.7
-64.3
-63.6
-60.5
-55.9
-51.8
-50.4
-51.2
-51.7
-49.3
-43.6
-36.1
-29.6
-25.8
-25.1
-26.6
-30.4
-34.7
-36.3
-33.2
-26.8
-21.5
-20.1
-21.5
-22.7
-21.3
-16.0
-7.8
0.6
6.9
10.9
14.6
19.6
25.5
31.1
36.3
41.1
45.9
51.0
55.2
57.4
56.9
54.8
52.1
50.6
50.9
53.2
56.9
61.3
65.3
68.8
70.5
70.3
68.5
65.7
61.1
54.3
44.7
33.9
24.0
16.7
12.2
9.4
5.9
-0.3
-12.0
-27.9
-42.8
-51.8
-54.1
-53.2
-52.6
-53.7
-55.7
-57.3
-57.4
-56.8
-56.8
-58.3
-61.6
-64.9
-66.6
-67.2
-67.7
-69.1
-71.3
-74.1
-77.2
-79.8
-80.6
-79.0
-76.9
-76.5
-79.2
-83.7
-86.7
-86.5
-83.2
-79.0
-75.6
-73.6
-73.0
-73.1
-73.6
-74.4
-75.9
-79.2
-84.8
-91.3
-96.5
-98.8
-99.1
-98.3
-96.5
-92.9
-88.5
-86.8
-89.0
-93.0
-94.4
-91.5
-86.2
-82.3
-81.5
-82.9
-84.5
-85.7
-87.7
-90.9
-94.4
-96.6
-96.1
-92.6
-87.1
-81.4
-76.5
-72.8
-69.5
-66.9
-65.3
-65.8
-67.8
-70.0
-72.2
-74.5
-78.1
-82.0
-83.7
-81.5
-77.3
-74.2
-74.8
-78.3
-80.9
-79.8
-74.7
-66.7
-58.7
-53.1
-51.3
-53.7
-59.0
-65.2
-69.7
-71.6
-71.4
-71.6
-72.8
-74.5
-74.8
-73.7
-73.1
-76.1
-83.4
-92.3
-97.4
-95.7
-88.4
-79.3
-71.1
-64.6
-60.1
-57.6
-57.1
-57.9
-59.6
-62.1
-65.2
-67.1
-66.9
-65.5
-64.3
-63.9
-64.3
-64.6
-63.6
-61.8
-59.3
-56.6
-54.5
-54.3
-56.9
-61.3
-66.0
-70.2
-73.0
-73.1
-70.5
-66.0
-60.7
-55.7
-51.5
-48.9
-48.2
-49.6
-52.7
-56.8
-60.5
-63.0
-63.5
-61.9
-57.7
-51.2
-43.6
-36.6
-29.9
-23.2
-17.9
-15.6
-16.8
-21.0
-26.6
-32.2
-36.6
-40.5
-44.5
-47.9
-49.5
-48.6
-46.2
-43.6
-41.7
-41.2
-42.8
-47.0
-53.5
-61.6
-69.9
-76.2
-79.8
-80.7
-80.7
-81.5
-83.9
-87.6
-91.5
-93.8
-93.2
-90.7
-88.2
-86.2
-83.9
-80.7
-77.8
-76.5
-78.1
-81.4
-83.7
-83.7
-82.1
-80.7
-79.8
-78.4
-76.1
-73.6
-72.7
-74.1
-77.2
-81.2
-85.3
-90.2
-98.6
-111.4
-126.0
-138.6
-145.8
-147.2
-143.4
-136.3
-125.5
-110.3
-89.0
-60.5
-25.8
13.4
56.2
101.7
149.6
197.4
241.7
280.0
310.4
333.0
349.2
359.7
365.3
365.8
361.0
350.3
332.8
309.8
283.2
255.2
226.3
197.1
168.3
141.7
118.7
100.8
87.9
78.4
70.2
63.0
57.4
53.1
49.2
44.4
37.0
26.3
13.7
2.7
-4.8
-10.1
-14.3
-16.7
-16.4
-14.5
-13.1
-14.2
-18.8
-26.9
-38.1
-52.3
-68.1
-83.9
-97.4
-106.4
-110.1
-110.1
-109.5
-109.0
-108.4
-106.7
-104.7
-103.4
-103.9
-106.7
-110.3
-112.5
-111.1
-106.7
-102.2
-99.6
-99.6
-101.0
-103.4
-107.0
-111.4
-114.8
-115.4
-112.5
-107.8
-103.3
-100.3
-98.8
-97.9
-96.6
-95.4
-95.1
-96.1
-97.5
-99.1
-101.6
-105.0
-107.3
-107.0
-103.4
-96.9
-88.8
-81.5
-76.5
-73.9
-71.6
-68.8
-66.6
-67.2
-71.3
-77.0
-81.8
-83.9
-82.9
-80.3
-77.0
-73.4
-70.2
-67.1
-65.0
-64.7
-66.0
-67.5
-68.8
-70.0
-71.4
-72.5
-73.1
-73.1
-72.2
-70.2
-66.6
-61.8
-56.5
-52.1
-49.5
-49.2
-51.5
-56.6
-63.6
-70.5
-74.4
-74.5
-71.4
-65.8
-59.1
-52.4
-45.4
-37.7
-30.0
-24.0
-20.7
-19.5
-18.8
-18.2
-18.1
-17.8
-16.5
-13.4
-9.2
-5.2
-2.7
-2.0
-2.7
-3.0
-1.1
3.0
8.0
11.8
13.1
11.5
9.4
9.5
14.6
23.8
34.4
43.3
48.6
49.2
46.8
44.4
43.3
43.1
43.9
46.1
48.7
49.0
45.8
42.3
43.0
47.8
54.1
59.3
61.9
61.5
57.9
51.7
43.0
32.1
19.6
7.0
-3.3
-10.6
-15.9
-21.2
-27.4
-34.7
-42.2
-49.9
-58.3
-67.2
-74.1
-76.7
-74.8
-70.0
-64.6
-60.1
-57.6
-56.6
-56.9
-58.8
-62.1
-66.6
-71.6
-75.8
-77.8
-78.7
-80.4
-83.7
-87.9
-91.3
-93.5
-94.1
-94.0
-92.9
-89.9
-86.2
-85.7
-91.6
-100.8
-106.6
-104.4
-95.8
-84.6
-74.4
-67.7
-65.5
-67.2
-70.5
-72.8
-74.1
-74.8
-75.6
-76.1
-77.2
-79.7
-83.7
-88.2
-91.5
-93.0
-92.6
-90.5
-87.7
-85.1
-82.6
-80.3
-78.1
-76.5
-75.1
-73.9
-73.4
-75.1
-78.6
-81.4
-82.5
-84.3
-89.5
-95.7
-98.2
-94.7
-87.9
-80.7
-74.1
-67.5
-61.1
-55.9
-52.7
-52.7
-55.4
-59.0
-62.2
-64.6
-66.1
-67.4
-68.1
-68.1
-67.5
-68.0
-70.2
-73.4
-76.5
-77.9
-77.6
-76.1
-74.8
-74.8
-75.6
-76.4
-76.4
-75.1
-71.9
-67.5
-62.7
-58.8
-56.9
-57.6
-59.0
-59.7
-59.3
-58.7
-60.1
-64.3
-71.1
-79.0
-85.4
-87.4
-84.8
-79.7
-74.2
-68.8
-62.5
-56.6
-52.7
-51.2
-50.9
-50.7
-50.6
-51.2
-53.2
-56.5
-60.4
-64.4
-68.1
-71.6
-73.9
-74.4
-71.7
-65.3
-56.9
-49.6
-45.4
-44.8
-47.6
-52.6
-57.7
-60.8
-60.8
-58.2
-54.3
-49.8
-45.3
-41.4
-39.1
-38.8
-40.0
-41.7
-43.9
-47.6
-53.2
-60.7
-67.7
-70.0
-65.2
-55.1
-43.4
-32.5
-23.0
-15.1
-9.5
-6.4
-6.1
-7.8
-10.8
-14.2
-17.9
-22.1
-26.0
-29.0
-31.6
-34.7
-37.8
-39.8
-40.5
-40.9
-41.2
-40.5
-38.8
-37.5
-37.8
-40.3
-45.1
-51.7
-58.7
-65.5
-71.3
-75.8
-78.3
-78.6
-76.9
-74.4
-74.5
-80.3
-90.2
-97.1
-94.4
-84.2
-72.5
-63.8
-58.2
-55.1
-53.8
-54.1
-55.5
-57.7
-60.7
-63.9
-67.2
-70.3
-73.9
-77.8
-80.1
-79.2
-75.9
-74.1
-77.3
-87.3
-102.4
-119.6
-135.8
-147.5
-152.4
-150.1
-140.2
-123.0
-98.2
-65.2
-24.0
24.1
77.2
131.3
182.3
227.1
263.6
291.0
309.8
322.4
333.5
346.1
359.1
367.8
368.5
360.8
345.4
323.2
296.1
266.0
235.2
205.2
176.5
149.8
127.1
109.7
98.2
91.0
86.0
81.5
77.2
72.0
65.5
58.2
51.2
44.7
38.6
32.2
24.6
15.4
5.5
-3.1
-8.9
-11.4
-11.8
-12.6
-15.6
-22.4
-33.0
-46.8
-62.1
-77.3
-91.2
-103.4
-114.5
-124.0
-130.0
-131.6
-129.7
-125.4
-119.0
-110.9
-103.3
-97.9
-95.2
-94.7
-95.7
-97.9
-99.7
-100.0
-98.9
-97.4
-96.1
-96.1
-97.9
-100.3
-102.2
-103.0
-102.5
-101.1
-98.9
-95.8
-91.6
-87.0
-82.5
-79.2
-77.6
-77.9
-79.7
-81.8
-83.7
-84.5
-84.5
-83.5
-81.5
-78.9
-76.4
-75.3
-77.6
-84.0
-92.4
-98.2
-99.6
-97.7
-93.8
-87.7
-78.3
-67.5
-59.1
-55.4
-54.8
-54.5
-52.9
-50.3
-47.8
-47.5
-51.2
-58.3
-65.7
-68.9
-67.2
-62.7
-57.4
-52.7
-49.9
-50.1
-53.4
-57.6
-59.9
-59.0
-55.9
-52.6
-50.6
-50.7
-52.4
-53.7
-52.0
-48.2
-44.8
-43.1
-42.3
-41.1
-39.1
-36.3
-32.8
-28.5
-23.5
-19.0
-16.2
-16.4
-19.2
-22.4
-24.3
-24.9
-24.3
-21.3
-15.1
-5.8
3.6
10.8
14.5
15.7
16.0
16.0
16.5
17.8
19.5
22.0
25.1
28.8
33.6
39.5
46.1
51.7
55.4
58.2
60.7
62.4
62.4
60.5
57.1
54.1
53.5
55.4
57.4
57.6
54.9
50.1
44.5
39.5
35.6
32.1
26.6
18.8
10.1
2.5
-3.3
-9.0
-16.5
-25.7
-35.2
-43.3
-49.0
-52.3
-53.1
-51.8
-49.8
-49.3
-51.2
-54.0
-56.9
-60.4
-64.6
-67.5
-68.1
-66.1
-62.9
-59.9
-59.3
-61.5
-65.2
-69.9
-74.5
-78.3
-79.7
-79.2
-77.6
-76.5
-76.2
-76.4
-76.2
-74.8
-72.8
-72.0
-74.5
-80.6
-88.4
-94.6
-96.9
-94.9
-90.7
-87.3
-87.1
-90.9
-95.4
-96.6
-93.5
-88.4
-83.7
-80.4
-77.5
-73.4
-69.2
-67.5
-70.5
-78.1
-85.9
-89.1
-85.7
-77.6
-68.5
-61.1
-57.7
-58.5
-63.2
-69.4
-73.6
-74.5
-73.6
-73.1
-73.6
-73.7
-73.3
-72.2
-71.1
-70.5
-69.5
-68.0
-66.7
-67.7
-71.7
-77.3
-80.4
-78.4
-72.5
-67.1
-65.0
-66.7
-69.4
-70.0
-67.7
-63.6
-60.5
-60.2
-64.6
-73.7
-84.9
-93.8
-96.3
-91.0
-78.3
-61.5
-45.8
-35.0
-29.9
-29.0
-30.7
-34.2
-39.2
-45.0
-51.0
-56.6
-62.7
-70.2
-77.5
-81.7
-82.1
-80.6
-78.6
-75.3
-69.9
-62.7
-55.7
-51.0
-49.5
-50.1
-51.7
-52.9
-54.3
-55.9
-58.0
-61.1
-65.0
-67.8
-67.7
-64.6
-60.8
-59.0
-60.4
-64.9
-70.8
-75.3
-75.8
-73.0
-70.8
-71.6
-73.1
-70.8
-63.8
-54.9
-47.2
-42.0
-39.1
-37.4
-36.1
-36.3
-38.4
-42.5
-47.8
-52.4
-54.0
-51.3
-45.0
-37.4
-30.4
-25.2
-21.8
-19.9
-20.7
-25.8
-34.9
-45.1
-52.9
-55.9
-52.9
-45.8
-37.2
-29.7
-24.8
-23.0
-25.2
-30.4
-36.9
-42.8
-47.6
-52.4
-58.0
-64.4
-72.5
-83.4
-94.4
-100.0
-97.1
-87.0
-74.4
-63.6
-56.3
-53.4
-55.1
-60.4
-66.0
-69.1
-69.4
-68.5
-68.1
-68.8
-70.0
-71.1
-72.0
-73.1
-74.8
-76.5
-77.5
-78.1
-80.0
-83.5
-87.4
-89.1
-87.7
-83.9
-79.2
-75.5
-75.5
-81.4
-94.1
-111.4
-129.1
-143.7
-152.9
-155.9
-153.1
-143.7
-126.6
-99.3
-59.9
-10.0
45.8
101.9
155.2
203.4
243.6
274.2
297.2
316.8
336.1
353.7
366.1
370.6
366.3
354.1
336.3
314.5
290.2
263.9
236.1
206.7
176.2
146.2
118.4
94.9
76.7
64.1
57.1
55.2
56.2
56.2
52.3
44.5
35.6
29.3
26.0
23.4
18.5
10.6
0.3
-9.7
-18.1
-24.3
-29.6
-36.1
-44.2
-51.2
-54.9
-56.2
-58.0
-63.0
-71.4
-81.1
-90.4
-98.5
-104.2
-107.5
-108.9
-109.8
-110.9
-111.5
-110.6
-107.8
-104.4
-102.4
-103.1
-105.6
-107.6
-107.8
-106.4
-104.8
-104.2
-103.9
-103.4
-103.0
-102.8
-102.5
-100.8
-97.1
-92.9
-91.0
-93.3
-99.3
-105.0
-107.2
-105.0
-100.5
-96.3
-93.7
-92.3
-90.9
-89.6
-89.3
-89.5
-88.8
-88.2
-89.3
-91.5
-91.5
-87.6
-80.7
-73.6
-67.1
-61.6
-57.6
-55.4
-54.8
-55.5
-57.3
-59.9
-63.6
-66.7
-67.5
-65.7
-62.1
-59.1
-58.3
-60.5
-65.5
-71.1
-74.2
-73.1
-68.6
-63.5
-61.1
-61.6
-63.2
-62.7
-60.7
-59.1
-60.1
-61.9
-61.9
-58.7
-54.1
-51.0
-50.1
-49.9
-48.6
-46.1
-44.2
-43.0
-41.6
-39.4
-37.2
-36.3
-37.2
-38.9
-38.8
-35.0
-29.9
-25.4
-21.8
-17.1
-9.7
-0.2
8.9
15.7
18.7
18.4
16.4
14.8
14.8
16.0
18.4
20.9
22.7
23.7
23.7
23.4
24.3
26.6
30.2
34.2
37.8
40.9
43.6
45.4
47.2
50.4
55.5
60.7
63.8
64.6
63.2
58.2
47.5
32.1
17.9
10.8
11.8
16.5
19.2
16.4
8.4
-2.7
-14.2
-23.5
-28.8
-31.1
-32.5
-35.2
-39.4
-43.9
-47.9
-51.0
-53.5
-55.9
-58.0
-59.9
-61.6
-63.6
-66.7
-71.4
-76.5
-79.8
-79.7
-76.1
-71.3
-67.5
-66.3
-67.4
-71.1
-77.6
-85.7
-92.6
-95.5
-94.9
-92.6
-89.9
-87.0
-84.5
-83.9
-84.8
-85.3
-83.4
-80.3
-77.8
-76.5
-76.2
-76.9
-78.4
-80.4
-82.5
-85.6
-89.9
-94.1
-95.5
-92.7
-87.3
-81.8
-77.9
-76.5
-77.8
-81.2
-85.1
-87.9
-88.8
-88.5
-88.1
-89.3
-92.9
-97.1
-98.6
-95.4
-88.8
-82.3
-78.4
-76.2
-74.8
-74.1
-74.5
-75.3
-74.7
-71.3
-65.8
-60.5
-57.3
-56.8
-58.5
-61.9
-66.0
-69.1
-70.6
-71.7
-74.7
-79.5
-83.1
-82.6
-78.1
-72.0
-67.1
-64.3
-64.1
-65.7
-67.5
-68.3
-67.2
-65.0
-62.2
-59.7
-59.0
-60.2
-63.0
-66.1
-68.6
-69.5
-69.4
-69.7
-71.6
-74.2
-76.5
-79.3
-83.7
-87.9
-87.6
-81.1
-71.9
-63.8
-57.9
-52.7
-48.1
-46.1
-47.5
-50.7
-52.7
-51.7
-49.3
-48.1
-49.6
-53.2
-57.4
-61.5
-64.3
-65.7
-65.7
-64.3
-61.1
-57.1
-53.5
-52.4
-53.8
-56.2
-56.6
-54.5
-51.0
-47.3
-43.3
-39.5
-37.0
-36.4
-37.0
-38.1
-39.2
-40.8
-43.7
-47.2
-49.5
-49.6
-48.1
-45.9
-42.8
-39.4
-37.0
-36.4
-37.2
-38.0
-36.3
-30.0
-20.6
-11.8
-6.4
-4.4
-5.5
-8.6
-13.7
-20.7
-28.2
-34.7
-40.2
-45.3
-50.3
-54.3
-57.3
-59.3
-61.8
-65.0
-68.5
-71.9
-74.7
-76.4
-77.8
-78.1
-76.1
-71.6
-66.3
-62.4
-60.7
-60.7
-61.5
-62.2
-63.0
-65.2
-70.6
-79.3
-88.4
-93.7
-93.7
-89.0
-81.2
-73.3
-67.7
-66.3
-67.4
-68.5
-68.0
-66.3
-64.4
-63.3
-64.3
-68.5
-77.8
-92.9
-112.6
-133.3
-149.8
-157.6
-154.9
-142.3
-121.6
-94.3
-61.0
-22.1
21.5
68.8
117.4
165.8
211.7
252.6
286.5
312.5
331.0
342.8
349.0
349.9
344.4
331.4
312.6
291.6
271.4
250.9
228.2
203.4
178.1
152.7
128.6
108.6
93.7
82.0
71.6
63.0
58.3
57.9
59.9
61.6
61.0
56.8
49.0
38.4
26.8
15.4
5.0
-5.2
-14.8
-22.7
-27.2
-28.0
-26.6
-25.4
-27.1
-32.5
-41.1
-51.7
-63.5
-76.1
-87.7
-96.5
-100.8
-101.7
-101.0
-100.6
-101.7
-103.0
-103.9
-105.3
-109.2
-115.7
-122.4
-126.2
-126.2
-124.1
-120.4
-114.3
-106.6
-98.3
-90.9
-84.5
-79.8
-77.0
-76.2
-77.5
-80.6
-85.3
-89.6
-92.3
-92.4
-91.5
-90.9
-90.2
-88.7
-85.3
-80.1
-74.4
-69.7
-67.8
-69.1
-72.8
-77.3
-80.7
-82.0
-81.7
-80.1
-77.6
-75.6
-75.0
-76.1
-77.3
-77.0
-74.8
-71.1
-66.9
-63.6
-61.6
-61.6
-64.3
-69.7
-75.5
-77.6
-74.1
-66.6
-59.1
-54.9
-54.3
-56.0
-58.7
-61.8
-63.8
-63.3
-60.2
-54.9
-49.3
-45.4
-45.3
-48.9
-54.0
-56.9
-55.4
-49.9
-43.4
-38.3
-35.0
-32.8
-30.7
-28.2
-26.2
-26.2
-27.6
-29.1
-29.0
-27.1
-23.8
-20.6
-18.1
-16.8
-16.2
-15.3
-13.6
-11.2
-8.4
-4.8
-0.3
5.2
10.9
15.7
18.5
18.2
15.6
13.1
13.9
17.8
22.9
27.9
33.0
39.7
48.2
57.7
66.4
73.6
79.3
82.8
82.9
80.3
76.2
72.7
70.3
68.3
65.0
58.0
46.8
34.6
25.4
21.2
20.9
22.9
25.1
25.5
22.4
16.2
7.6
-1.3
-10.3
-19.0
-26.8
-33.8
-40.0
-46.4
-53.1
-59.7
-65.0
-67.8
-66.9
-63.2
-59.0
-56.9
-59.1
-65.2
-73.6
-81.2
-85.9
-87.6
-87.1
-84.9
-81.7
-78.9
-78.7
-81.5
-85.1
-87.6
-88.7
-88.5
-87.0
-84.2
-81.4
-80.1
-81.2
-83.2
-85.3
-86.8
-87.7
-88.5
-89.9
-92.3
-94.9
-96.9
-97.7
-97.2
-94.9
-90.4
-85.4
-81.8
-80.3
-80.4
-81.2
-81.8
-82.6
-84.0
-86.0
-88.5
-91.0
-93.3
-94.7
-95.1
-95.5
-96.8
-98.5
-99.4
-98.8
-97.1
-95.1
-93.3
-92.9
-94.0
-93.2
-88.2
-80.3
-72.8
-67.8
-65.0
-63.8
-63.6
-64.6
-65.8
-67.2
-69.9
-75.5
-83.9
-91.6
-94.1
-89.9
-81.8
-74.8
-71.9
-73.3
-76.7
-78.6
-76.5
-71.4
-65.5
-61.5
-60.2
-61.1
-63.3
-66.0
-69.7
-74.8
-80.1
-82.3
-80.0
-73.9
-67.2
-62.1
-59.0
-57.3
-57.1
-58.3
-60.5
-63.2
-64.9
-66.0
-67.2
-69.7
-73.1
-75.8
-75.9
-73.4
-70.5
-69.1
-71.1
-75.1
-78.4
-79.0
-76.7
-72.2
-65.7
-58.7
-53.1
-50.1
-49.0
-48.4
-47.0
-44.8
-43.6
-44.8
-48.1
-52.1
-55.2
-56.6
-56.5
-56.2
-55.9
-55.2
-54.0
-52.4
-50.3
-46.8
-42.2
-37.7
-34.4
-32.8
-32.8
-33.6
-34.7
-35.2
-35.0
-35.0
-35.8
-36.9
-38.0
-39.5
-41.4
-42.3
-41.2
-38.6
-36.3
-37.0
-42.6
-52.3
-61.6
-66.7
-66.4
-62.4
-58.0
-56.5
-58.3
-62.9
-67.7
-71.9
-74.5
-75.8
-76.7
-78.1
-78.6
-77.6
-76.9
-77.3
-78.4
-78.4
-76.5
-73.7
-71.7
-71.4
-73.4
-77.3
-81.4
-83.4
-82.9
-80.7
-78.1
-76.1
-75.3
-75.1
-75.3
-76.7
-79.5
-82.9
-85.9
-89.6
-96.5
-107.6
-121.2
-134.9
-146.5
-154.8
-158.5
-156.2
-146.5
-129.1
-105.3
-76.1
-41.1
0.8
48.6
98.8
148.7
196.3
239.4
275.5
303.3
323.7
338.1
348.4
355.1
357.6
352.9
339.4
317.1
288.5
256.2
221.6
186.5
152.3
120.6
93.2
71.3
54.1
41.4
32.2
27.1
26.0
27.2
28.2
27.1
23.4
17.9
11.4
5.2
0.5
-2.7
-5.8
-10.0
-15.3
-20.1
-23.5
-25.2
-26.9
-30.7
-37.2
-45.8
-54.6
-62.5
-69.5
-77.3
-87.4
-98.8
-108.1
-113.6
-115.3
-115.4
-115.3
-113.9
-110.8
-108.0
-106.4
-105.8
-104.8
-103.4
-103.8
-107.8
-114.3
-119.2
-119.3
-116.0
-111.4
-106.4
-101.3
-97.1
-93.8
-91.0
-87.6
-83.7
-80.4
-78.4
-78.3
-80.1
-83.7
-88.5
-93.8
-98.0
-100.3
-101.3
-101.9
-101.9
-99.6
-94.4
-87.4
-80.6
-75.1
-71.7
-69.9
-69.5
-70.5
-72.2
-73.7
-74.5
-74.1
-73.4
-73.4
-73.9
-74.8
-76.2
-78.6
-81.5
-82.5
-79.5
-72.8
-64.6
-57.9
-55.4
-58.0
-65.5
-73.9
-79.0
-78.9
-74.2
-67.7
-61.1
-56.6
-55.2
-56.5
-58.5
-59.1
-58.2
-56.6
-55.2
-54.6
-55.4
-57.7
-59.6
-58.2
-52.9
-45.4
-39.1
-36.9
-39.7
-45.6
-50.9
-52.0
-47.9
-40.0
-30.7
-22.3
-16.0
-11.8
-9.0
-6.4
-3.9
-1.6
0.0
0.8
1.1
0.5
-1.0
-2.2
-1.3
3.0
10.1
17.6
23.2
26.3
27.2
27.6
28.2
29.7
32.7
37.4
43.9
50.7
55.1
55.5
52.7
49.5
46.8
44.7
41.9
38.8
36.4
35.8
36.0
35.6
33.8
29.3
21.3
11.1
-0.3
-12.5
-25.1
-36.1
-42.3
-43.4
-42.8
-44.5
-49.3
-54.6
-57.9
-59.3
-60.4
-61.9
-63.8
-65.8
-68.5
-72.8
-78.3
-84.2
-89.5
-92.6
-91.9
-87.1
-80.1
-73.9
-70.8
-71.4
-75.3
-81.4
-87.4
-91.6
-92.9
-91.3
-88.5
-85.9
-84.5
-84.8
-86.0
-87.7
-89.6
-92.3
-96.3
-101.0
-105.3
-108.4
-109.4
-107.3
-102.7
-96.0
-88.7
-82.6
-79.0
-78.4
-80.3
-84.3
-90.1
-97.2
-104.8
-109.2
-107.5
-100.0
-90.2
-81.1
-73.7
-68.8
-67.2
-69.7
-75.6
-81.4
-84.0
-83.4
-81.8
-80.7
-79.7
-78.1
-76.7
-76.2
-77.0
-78.7
-80.1
-79.7
-77.0
-73.1
-69.4
-66.6
-65.5
-65.8
-67.5
-70.6
-74.1
-76.5
-78.6
-81.2
-83.9
-84.9
-84.3
-83.7
-84.5
-85.3
-83.7
-80.3
-77.2
-75.6
-74.8
-72.8
-69.2
-64.6
-60.1
-57.1
-56.8
-58.8
-62.2
-66.7
-71.6
-74.8
-75.3
-73.6
-73.4
-78.3
-88.2
-98.2
-101.6
-96.1
-84.5
-70.8
-58.7
-50.1
-46.7
-48.1
-52.6
-58.2
-63.2
-66.7
-68.9
-70.2
-71.9
-74.4
-77.2
-78.4
-76.5
-71.4
-64.7
-58.7
-55.4
-56.2
-60.7
-65.7
-67.7
-65.8
-61.5
-57.7
-57.6
-61.0
-64.6
-65.2
-62.5
-57.4
-50.6
-42.8
-35.5
-29.9
-26.2
-23.7
-22.1
-21.2
-20.9
-21.8
-24.6
-29.3
-35.2
-40.5
-43.0
-42.6
-40.8
-39.2
-38.4
-38.8
-40.3
-44.2
-49.9
-56.9
-63.9
-70.9
-77.3
-81.8
-83.1
-81.7
-79.5
-78.6
-79.5
-81.5
-82.6
-81.4
-78.1
-74.2
-71.1
-69.7
-70.3
-72.7
-76.7
-81.8
-86.2
-88.4
-87.9
-85.7
-82.9
-81.2
-81.2
-82.3
-81.8
-78.1
-72.2
-67.2
-65.7
-67.7
-72.2
-77.8
-85.1
-95.4
-108.9
-124.3
-138.9
-150.6
-157.7
-160.1
-155.9
-143.1
-120.7
-89.6
-51.3
-6.4
43.0
93.7
142.8
189.6
233.6
273.3
307.2
334.1
353.2
364.7
368.9
367.4
361.1
350.7
336.0
317.6
296.3
272.8
246.5
217.6
187.4
157.6
129.1
103.6
83.7
71.7
67.7
69.2
73.1
76.7
78.4
77.3
72.3
62.4
47.2
28.8
10.9
-3.0
-11.7
-16.0
-18.8
-21.3
-23.8
-25.7
-26.6
-28.0
-31.6
-38.1
-47.9
-60.1
-73.9
-88.4
-102.2
-114.0
-122.1
-125.5
-124.3
-120.9
-118.2
-116.5
-114.6
-111.7
-108.1
-104.4
-101.4
-99.6
-99.9
-103.4
-110.1
-117.8
-123.5
-124.3
-119.8
-112.2
-105.0
-101.4
-101.0
-101.4
-100.6
-97.2
-91.6
-85.4
-80.6
-78.3
-78.3
-80.6
-84.5
-89.5
-94.0
-96.8
-96.8
-94.1
-90.1
-85.7
-81.8
-78.6
-76.2
-75.1
-75.3
-75.8
-76.4
-76.9
-77.6
-78.9
-80.1
-80.6
-80.1
-79.3
-78.6
-78.4
-78.6
-78.6
-78.3
-77.5
-75.9
-73.3
-69.4
-65.5
-64.1
-66.4
-70.2
-71.6
-69.7
-66.7
-65.0
-65.2
-65.0
-62.9
-58.3
-53.5
-51.2
-53.4
-59.0
-63.0
-62.2
-57.9
-53.1
-49.6
-48.6
-49.0
-48.2
-44.4
-37.8
-31.3
-26.8
-24.1
-21.8
-19.3
-16.8
-15.0
-13.9
-13.1
-12.0
-9.5
-6.6
-3.6
-0.8
1.6
3.6
5.2
6.4
7.5
9.2
12.2
16.5
21.8
26.9
31.3
34.1
35.3
36.0
36.7
37.4
36.4
33.5
30.2
30.2
35.3
45.1
55.9
62.9
63.6
60.2
56.3
54.8
55.1
54.1
50.7
45.0
37.8
29.9
20.7
10.0
-1.1
-10.9
-17.9
-22.1
-24.3
-25.4
-26.2
-27.4
-29.4
-31.8
-34.4
-37.7
-41.7
-46.2
-50.7
-55.1
-58.8
-62.2
-65.5
-68.8
-71.7
-73.9
-74.7
-74.4
-73.6
-73.1
-74.2
-77.0
-80.7
-84.3
-86.5
-87.0
-86.2
-85.7
-86.8
-90.7
-97.7
-105.8
-110.3
-107.5
-99.3
-91.2
-86.7
-83.9
-80.0
-74.5
-69.5
-67.5
-70.2
-77.6
-86.7
-91.8
-90.4
-84.3
-77.8
-73.3
-71.3
-70.3
-69.2
-67.7
-66.7
-67.7
-70.0
-73.0
-75.0
-75.8
-75.8
-75.8
-75.8
-75.8
-77.3
-80.7
-85.1
-87.7
-87.0
-83.2
-78.6
-74.7
-73.1
-73.7
-76.1
-79.0
-80.7
-80.0
-77.0
-74.2
-74.1
-77.6
-83.2
-87.1
-87.1
-84.9
-82.8
-80.6
-77.2
-72.5
-68.6
-66.6
-66.6
-65.8
-63.0
-59.7
-58.8
-61.0
-63.5
-63.6
-60.8
-57.4
-54.6
-53.1
-52.6
-53.2
-55.4
-58.3
-60.4
-60.4
-59.0
-57.3
-56.0
-55.7
-56.8
-59.4
-63.3
-67.5
-71.1
-73.4
-73.9
-72.3
-68.9
-65.5
-63.8
-63.9
-64.6
-63.2
-59.7
-56.0
-53.5
-53.1
-54.5
-58.3
-64.7
-71.7
-76.9
-78.1
-74.5
-67.1
-58.5
-52.3
-48.9
-47.2
-45.9
-44.7
-42.5
-39.4
-36.9
-37.5
-43.0
-52.4
-61.3
-64.6
-60.7
-51.3
-40.2
-30.5
-24.1
-21.2
-19.9
-18.4
-16.2
-14.2
-13.7
-15.3
-18.7
-23.2
-27.9
-31.8
-34.1
-34.9
-34.9
-35.5
-38.6
-44.8
-52.4
-58.8
-62.2
-62.7
-62.2
-63.2
-66.0
-69.2
-71.3
-71.7
-71.1
-69.5
-68.1
-68.3
-70.6
-73.9
-75.1
-73.4
-69.4
-64.9
-61.5
-59.9
-61.0
-64.3
-69.7
-76.2
-82.1
-85.1
-84.0
-79.7
-73.4
-67.8
-64.9
-63.9
-63.5
-63.2
-63.6
-65.8
-70.3
-78.1
-89.5
-103.0
-116.8
-129.4
-140.2
-148.2
-152.0
-149.0
-137.7
-117.8
-91.2
-59.9
-24.6
14.8
59.3
108.0
158.0
205.8
249.0
286.5
317.9
342.8
361.3
373.4
379.0
377.8
369.5
354.0
330.4
299.4
264.6
230.2
199.9
173.9
150.4
127.7
106.4
88.8
76.4
68.6
63.5
60.4
59.6
60.4
60.7
58.8
54.5
47.9
40.2
32.1
24.0
14.3
2.0
-12.2
-25.1
-32.7
-33.3
-29.1
-25.1
-25.2
-31.8
-45.6
-65.5
-88.1
-106.6
-115.9
-115.1
-108.3
-100.3
-94.1
-90.5
-88.8
-88.8
-90.5
-94.3
-99.4
-104.5
-108.4
-110.6
-111.2
-110.0
-107.5
-104.5
-101.6
-99.1
-97.5
-97.7
-99.6
-102.0
-104.2
-104.8
-103.3
-99.6
-93.5
-87.1
-82.0
-79.8
-80.7
-83.7
-86.7
-88.8
-90.4
-91.6
-92.7
-93.5
-93.5
-92.6
-90.5
-87.0
-82.1
-77.2
-73.6
-72.2
-73.4
-77.3
-83.4
-90.4
-95.8
-97.7
-95.8
-91.0
-84.6
-77.6
-70.6
-63.8
-56.9
-50.7
-46.2
-45.0
-47.9
-55.4
-65.0
-71.7
-71.9
-66.3
-58.7
-52.1
-47.9
-46.1
-46.4
-48.9
-52.9
-56.9
-59.1
-57.9
-53.8
-48.7
-44.0
-40.6
-38.6
-37.4
-36.6
-36.1
-36.3
-38.3
-43.9
-52.3
-59.7
-61.0
-53.7
-40.5
-25.8
-13.6
-5.5
-1.4
-0.3
-0.2
-0.3
-0.3
-0.8
-2.0
-2.5
-1.4
0.5
2.4
4.8
9.0
14.6
19.9
23.0
24.1
25.2
28.3
33.3
39.7
47.0
54.0
59.0
61.3
61.9
61.0
58.3
54.9
51.5
49.0
47.5
47.0
46.8
46.2
44.7
42.0
38.8
34.9
30.4
24.6
17.3
8.3
-1.1
-10.0
-18.1
-26.8
-36.7
-47.5
-56.9
-64.7
-70.5
-74.2
-74.2
-70.0
-62.4
-53.8
-47.6
-45.6
-48.7
-55.2
-62.2
-67.5
-70.8
-72.7
-73.3
-73.0
-72.7
-73.3
-75.0
-78.1
-81.4
-83.7
-84.3
-84.3
-85.6
-90.7
-100.0
-110.1
-115.1
-112.2
-102.8
-91.0
-79.8
-71.4
-66.4
-64.7
-65.3
-66.9
-68.8
-71.1
-74.2
-78.6
-83.9
-89.5
-93.7
-94.9
-92.4
-87.6
-82.6
-79.7
-78.9
-79.3
-79.7
-79.7
-79.8
-81.5
-85.3
-89.5
-91.8
-91.0
-88.8
-87.4
-88.1
-89.3
-89.9
-88.8
-85.9
-82.0
-79.0
-77.6
-76.4
-74.1
-70.6
-67.1
-64.4
-63.2
-64.1
-67.4
-72.3
-76.5
-78.3
-77.3
-75.1
-73.1
-72.0
-72.2
-73.1
-74.5
-75.8
-76.1
-75.6
-76.1
-78.4
-82.6
-87.4
-92.6
-97.1
-98.6
-94.3
-83.9
-71.1
-60.5
-54.9
-53.4
-53.5
-53.5
-52.7
-51.8
-52.1
-54.3
-58.7
-64.7
-70.9
-75.5
-77.0
-76.2
-75.3
-74.8
-74.7
-73.9
-72.2
-69.1
-64.7
-59.9
-55.7
-53.4
-53.2
-55.7
-60.8
-68.5
-76.2
-81.1
-80.6
-75.8
-68.9
-62.5
-59.3
-61.1
-66.9
-72.8
-73.9
-69.4
-62.1
-55.9
-52.7
-52.0
-51.5
-49.6
-46.1
-41.4
-37.0
-33.8
-32.2
-32.4
-33.5
-35.5
-38.1
-41.1
-42.8
-41.6
-38.3
-34.6
-31.1
-28.0
-25.8
-25.4
-27.7
-31.9
-36.1
-38.3
-38.9
-40.2
-44.2
-51.7
-59.9
-64.9
-64.3
-59.1
-53.5
-51.0
-52.3
-56.0
-60.4
-63.5
-64.9
-65.5
-66.7
-69.2
-73.0
-77.5
-82.6
-87.9
-91.3
-90.7
-86.3
-80.4
-75.3
-71.9
-70.2
-69.7
-69.1
-67.5
-65.7
-64.9
-66.7
-70.8
-75.6
-79.3
-81.4
-81.4
-79.8
-77.5
-76.9
-80.0
-88.2
-100.8
-114.5
-126.2
-135.0
-140.6
-143.4
-142.6
-137.5
-126.3
-107.8
-81.7
-47.9
-6.7
40.8
92.4
144.5
192.7
233.8
266.6
293.2
316.0
335.5
349.3
356.2
355.9
350.1
339.2
323.2
302.4
277.3
249.0
217.9
184.3
148.6
111.7
77.8
53.1
42.0
43.3
51.7
61.3
68.0
70.0
68.0
64.1
58.5
49.9
37.7
22.7
8.0
-5.2
-17.0
-27.2
-34.1
-34.9
-30.0
-23.5
-19.5
-20.6
-26.9
-36.7
-48.1
-59.0
-68.3
-76.4
-83.9
-91.2
-97.7
-103.3
-107.3
-109.7
-110.6
-110.6
-110.0
-109.7
-109.8
-110.6
-110.6
-108.9
-105.6
-101.6
-97.7
-94.4
-92.4
-93.0
-97.2
-104.4
-110.4
-112.0
-108.6
-103.0
-98.2
-94.4
-90.2
-85.1
-79.7
-75.0
-71.9
-70.9
-73.3
-80.0
-89.3
-96.9
-98.8
-94.6
-87.1
-79.5
-73.1
-68.9
-66.7
-65.7
-64.6
-63.3
-62.5
-63.5
-66.4
-70.8
-75.5
-79.5
-82.6
-82.8
-79.0
-72.2
-64.6
-58.0
-53.8
-52.6
-54.0
-56.2
-57.1
-55.7
-52.1
-47.3
-43.7
-43.0
-44.2
-46.1
-47.0
-47.6
-47.9
-47.8
-47.3
-47.9
-51.0
-55.4
-58.0
-57.4
-53.8
-49.5
-45.6
-42.6
-40.2
-36.7
-32.5
-29.4
-27.7
-26.3
-24.0
-19.8
-13.9
-7.3
-1.4
2.8
5.9
8.0
9.2
9.5
9.4
9.0
9.0
9.7
10.1
10.6
12.5
17.0
23.2
29.1
33.0
34.9
36.1
38.0
41.2
45.3
48.1
48.4
47.2
46.8
49.6
54.9
61.0
65.5
67.4
66.6
63.8
59.6
54.5
47.9
40.3
33.5
30.0
30.8
33.6
35.5
34.4
30.0
24.0
17.4
11.5
5.9
-0.5
-8.4
-17.0
-24.9
-31.3
-37.0
-43.3
-49.8
-54.6
-56.6
-56.8
-56.8
-58.0
-61.0
-65.3
-70.2
-73.3
-73.6
-72.2
-70.9
-70.6
-71.3
-71.9
-72.7
-73.7
-75.1
-76.4
-77.6
-79.7
-82.5
-84.9
-85.6
-84.6
-83.7
-84.6
-87.1
-89.9
-92.4
-94.4
-94.7
-92.7
-88.8
-84.8
-81.5
-79.0
-77.3
-76.4
-76.1
-75.8
-75.8
-75.6
-75.8
-76.5
-79.0
-83.5
-89.9
-96.6
-101.9
-103.6
-100.8
-94.0
-86.2
-80.1
-77.0
-75.9
-75.5
-74.4
-72.8
-71.3
-71.1
-72.3
-74.7
-77.2
-79.7
-81.4
-81.7
-79.7
-76.2
-73.1
-71.7
-71.7
-72.2
-72.5
-72.8
-72.8
-72.2
-70.6
-68.6
-66.7
-65.8
-65.5
-65.7
-66.0
-66.1
-66.3
-67.1
-68.5
-70.0
-71.3
-71.4
-70.5
-68.8
-67.1
-65.7
-65.2
-65.5
-66.1
-66.3
-65.5
-64.1
-62.5
-61.8
-62.4
-64.6
-67.1
-68.3
-68.0
-66.6
-65.8
-65.7
-65.8
-65.5
-64.3
-62.9
-61.6
-61.1
-61.6
-62.7
-64.1
-65.3
-67.1
-69.1
-70.8
-70.9
-69.1
-66.4
-63.6
-60.4
-56.2
-51.5
-47.5
-44.5
-42.5
-40.9
-40.0
-40.3
-41.7
-44.4
-49.2
-55.4
-59.6
-58.2
-50.6
-39.7
-29.3
-22.0
-18.7
-18.2
-18.5
-18.7
-18.4
-18.8
-21.3
-26.0
-31.0
-34.2
-35.3
-34.9
-33.8
-33.0
-32.8
-33.9
-36.9
-42.0
-48.7
-56.2
-63.9
-72.7
-81.7
-88.7
-91.2
-89.3
-85.9
-82.1
-77.8
-72.2
-65.8
-59.9
-56.0
-55.5
-58.5
-62.9
-66.1
-66.7
-65.7
-65.0
-66.7
-70.3
-73.3
-74.1
-74.8
-78.3
-83.9
-86.7
-82.9
-73.0
-61.5
-52.9
-49.9
-52.7
-58.3
-64.7
-71.4
-80.4
-93.0
-108.6
-124.8
-139.8
-151.5
-158.2
-158.2
-148.9
-129.4
-100.8
-65.3
-25.8
15.3
58.0
102.5
148.4
193.7
236.0
273.0
302.5
324.1
338.8
348.7
354.6
354.9
345.8
324.9
295.2
262.9
233.0
205.9
180.0
154.0
127.9
102.2
78.4
58.0
42.6
33.0
29.3
30.0
32.1
32.8
31.8
28.5
23.4
17.0
10.8
5.8
1.3
-3.4
-9.0
-14.6
-18.7
-20.2
-19.8
-18.7
-18.5
-20.7
-26.2
-34.7
-45.8
-57.9
-69.1
-77.6
-83.9
-89.1
-94.4
-98.8
-101.1
-100.8
-99.3
-97.4
-95.8
-94.3
-92.7
-91.2
-89.8
-88.8
-88.7
-89.1
-91.2
-94.7
-99.6
-103.1
-103.1
-99.3
-93.3
-87.7
-84.2
-82.0
-79.8
-77.3
-75.1
-74.8
-77.2
-81.5
-85.6
-86.7
-84.0
-78.3
-71.6
-66.1
-63.9
-65.8
-69.5
-72.2
-71.6
-68.5
-65.2
-63.2
-62.9
-64.4
-66.9
-68.9
-68.9
-67.1
-64.4
-61.3
-58.2
-57.1
-59.1
-64.4
-69.9
-72.5
-70.6
-65.0
-58.2
-52.4
-48.6
-46.5
-46.2
-47.5
-49.2
-49.8
-49.0
-47.2
-45.9
-45.1
-44.8
-44.4
-43.3
-41.6
-39.2
-36.9
-35.0
-33.8
-33.3
-33.0
-32.4
-31.3
-30.0
-28.5
-26.9
-25.4
-24.1
-23.7
-25.1
-27.9
-30.5
-30.7
-27.6
-22.6
-17.0
-11.8
-7.2
-3.3
0.0
2.5
5.3
8.7
13.1
17.9
23.0
28.8
34.6
39.1
40.0
36.4
29.4
21.3
16.4
17.6
26.6
41.4
57.1
69.4
76.9
80.6
82.6
83.9
84.5
84.3
83.4
81.2
77.6
71.7
63.2
52.6
41.7
33.0
27.4
24.0
19.8
12.9
3.8
-5.5
-13.6
-19.8
-24.3
-26.9
-28.5
-30.2
-33.5
-38.3
-44.4
-50.9
-57.1
-62.2
-66.3
-68.9
-69.9
-69.9
-70.9
-74.8
-80.4
-85.9
-89.8
-91.6
-90.7
-86.8
-81.8
-77.8
-75.8
-74.5
-72.5
-70.2
-69.7
-73.4
-80.3
-86.8
-88.5
-84.8
-77.8
-70.6
-66.0
-65.0
-68.0
-73.1
-77.5
-79.3
-80.1
-81.4
-83.5
-85.7
-86.5
-85.6
-83.5
-81.1
-78.6
-77.0
-76.2
-76.4
-78.1
-80.4
-82.6
-83.7
-84.5
-86.5
-90.2
-93.7
-94.0
-90.9
-87.0
-84.9
-84.8
-84.2
-81.7
-77.5
-73.3
-71.3
-72.2
-75.6
-80.9
-87.1
-92.3
-93.3
-88.4
-78.9
-68.8
-61.6
-58.5
-57.9
-58.2
-58.8
-60.4
-62.9
-65.8
-68.5
-70.6
-72.5
-73.6
-73.6
-72.0
-70.0
-68.1
-66.9
-66.3
-66.3
-66.4
-66.9
-68.0
-70.0
-73.0
-75.8
-77.5
-77.9
-77.3
-76.2
-75.6
-75.8
-77.3
-80.1
-82.6
-82.6
-78.6
-71.1
-62.4
-54.8
-49.3
-46.8
-47.0
-49.6
-54.3
-60.1
-64.6
-66.4
-66.6
-67.2
-68.0
-66.7
-61.9
-55.2
-49.0
-45.4
-44.5
-45.3
-46.1
-45.6
-44.0
-42.3
-41.6
-41.9
-42.0
-41.1
-39.5
-38.0
-36.3
-33.8
-31.1
-29.4
-29.0
-29.0
-28.5
-27.9
-28.2
-29.1
-29.9
-30.5
-31.4
-33.3
-36.9
-42.3
-49.2
-55.1
-58.2
-58.5
-57.1
-54.6
-51.8
-49.6
-49.3
-52.0
-57.7
-65.8
-73.4
-78.9
-81.1
-79.8
-76.2
-71.4
-67.7
-66.4
-67.4
-68.3
-68.1
-66.9
-66.1
-67.1
-69.5
-72.5
-75.9
-79.5
-81.1
-78.9
-74.4
-70.3
-68.9
-69.1
-69.1
-68.5
-67.5
-67.2
-67.5
-68.5
-71.3
-77.3
-88.1
-103.6
-122.3
-140.9
-155.7
-163.2
-161.1
-148.9
-127.6
-99.1
-64.4
-23.8
21.2
68.3
116.0
161.9
203.0
237.4
266.7
294.0
320.2
344.0
363.3
376.9
382.8
380.4
369.9
352.3
329.0
301.1
270.0
236.9
203.1
170.6
140.2
112.6
90.1
75.1
69.1
69.4
72.3
74.1
72.7
69.2
65.2
60.7
55.7
49.6
42.2
33.3
22.9
11.8
1.3
-7.5
-14.0
-19.0
-24.4
-32.1
-41.6
-51.2
-59.6
-66.9
-73.3
-79.0
-84.6
-89.8
-93.2
-94.1
-93.5
-93.3
-94.3
-96.5
-99.6
-103.6
-108.0
-111.5
-113.2
-113.9
-114.8
-116.5
-117.1
-115.6
-111.7
-106.7
-101.3
-95.7
-90.2
-85.7
-83.2
-83.9
-86.8
-89.1
-89.1
-86.7
-84.3
-84.5
-87.0
-89.3
-89.5
-88.7
-89.0
-90.2
-90.5
-88.7
-85.6
-82.8
-80.1
-76.2
-70.6
-64.3
-59.3
-57.6
-59.6
-63.5
-66.4
-67.5
-66.9
-66.3
-67.1
-69.7
-73.1
-74.5
-72.8
-68.8
-63.6
-59.1
-56.2
-55.7
-56.6
-57.9
-58.8
-59.1
-58.7
-57.6
-56.0
-54.1
-51.7
-49.3
-48.6
-49.8
-54.0
-60.8
-68.3
-72.5
-71.4
-66.3
-59.9
-53.5
-47.8
-42.6
-37.4
-31.9
-26.8
-22.6
-19.0
-16.5
-15.7
-17.0
-20.7
-25.5
-28.5
-27.7
-23.8
-18.7
-13.9
-9.7
-5.9
-2.2
1.3
4.2
5.9
5.6
3.4
0.2
-1.6
0.3
5.5
11.8
17.9
24.1
30.8
37.4
42.5
46.2
49.8
53.4
56.9
59.6
61.1
61.8
62.2
62.7
63.2
63.0
62.1
60.7
58.0
52.0
41.1
27.7
16.7
11.4
10.8
12.3
14.3
15.3
13.1
6.7
-2.2
-10.6
-16.4
-19.9
-22.9
-26.5
-31.0
-36.4
-42.5
-47.6
-51.0
-52.9
-54.6
-57.1
-60.5
-64.9
-70.6
-77.6
-84.6
-89.3
-90.1
-87.3
-82.5
-77.9
-75.5
-76.2
-79.0
-81.1
-79.8
-75.3
-69.5
-64.9
-62.7
-63.3
-66.6
-71.4
-76.5
-80.9
-84.9
-89.0
-92.1
-93.0
-91.6
-89.1
-86.5
-83.7
-81.7
-80.3
-80.1
-83.1
-89.9
-98.8
-104.2
-102.4
-94.3
-84.3
-76.4
-72.3
-73.0
-76.4
-79.3
-79.5
-77.8
-76.2
-75.8
-76.7
-78.7
-82.1
-85.4
-86.8
-85.7
-83.1
-79.8
-75.8
-72.0
-70.3
-71.4
-74.8
-79.7
-84.2
-86.8
-86.0
-82.0
-76.9
-72.2
-68.5
-65.8
-64.1
-63.2
-63.2
-63.8
-64.9
-66.1
-67.8
-69.7
-71.3
-72.7
-75.0
-78.7
-83.2
-87.4
-89.8
-89.8
-87.7
-84.2
-79.2
-72.7
-65.5
-59.6
-56.2
-55.4
-56.9
-59.9
-63.5
-66.9
-68.9
-69.4
-69.4
-70.3
-72.0
-73.6
-73.9
-72.5
-70.0
-67.7
-66.6
-66.9
-68.1
-69.4
-69.9
-69.2
-67.7
-65.5
-63.6
-63.3
-64.7
-66.9
-68.5
-68.8
-67.4
-64.7
-61.9
-59.9
-59.0
-59.0
-60.1
-61.8
-62.7
-62.1
-60.2
-57.1
-52.7
-47.8
-43.1
-39.8
-37.8
-36.3
-34.6
-33.0
-32.1
-32.7
-36.1
-43.1
-52.1
-59.1
-59.6
-54.0
-46.2
-41.7
-42.6
-46.2
-48.7
-48.9
-47.9
-46.7
-45.6
-46.1
-49.8
-57.3
-67.2
-77.2
-83.5
-84.2
-80.4
-75.3
-71.4
-69.5
-69.7
-72.2
-76.7
-82.1
-85.7
-86.5
-86.8
-88.5
-91.0
-91.3
-87.1
-79.3
-70.5
-63.3
-58.8
-56.8
-56.8
-59.0
-63.0
-66.9
-68.9
-69.5
-70.5
-74.1
-81.8
-94.4
-111.2
-130.8
-150.3
-165.8
-174.1
-173.0
-161.1
-138.6
-107.2
-69.4
-27.6
17.1
64.4
113.4
161.8
206.7
247.2
282.8
313.6
339.5
359.9
373.4
377.9
372.5
357.1
335.0
309.8
284.8
261.0
238.0
214.0
188.7
162.1
135.6
111.2
91.5
77.9
70.6
67.5
66.3
64.9
62.1
57.6
51.5
43.6
34.1
24.6
16.7
10.6
4.7
-2.0
-9.4
-16.0
-21.3
-26.3
-32.1
-39.2
-47.8
-58.0
-69.5
-80.1
-87.9
-92.9
-96.8
-101.7
-107.8
-113.4
-117.3
-119.5
-120.2
-118.8
-115.1
-110.1
-105.8
-104.4
-106.9
-112.6
-119.5
-124.9
-127.1
-125.2
-119.9
-112.8
-105.8
-101.1
-99.9
-101.1
-102.2
-101.1
-98.2
-94.4
-91.2
-89.8
-90.9
-93.5
-95.4
-94.3
-90.5
-85.9
-82.5
-82.8
-87.6
-94.6
-100.2
-102.0
-100.5
-97.4
-92.7
-87.0
-80.3
-74.4
-70.2
-67.8
-67.1
-66.7
-66.3
-66.1
-66.3
-67.5
-70.5
-75.0
-79.7
-82.3
-82.5
-80.9
-78.7
-76.9
-75.1
-73.6
-71.6
-69.2
-66.9
-66.0
-66.3
-66.4
-65.7
-64.4
-63.3
-61.6
-58.8
-55.4
-52.0
-49.2
-47.5
-47.3
-48.6
-51.3
-56.0
-60.7
-61.9
-57.9
-50.1
-42.3
-37.0
-34.7
-33.9
-32.8
-31.3
-29.7
-28.8
-27.2
-24.1
-19.5
-14.3
-9.2
-4.4
-0.8
0.3
-1.6
-5.3
-8.0
-7.8
-4.5
0.6
7.6
15.3
21.5
25.2
26.9
28.3
30.7
35.0
40.8
46.8
52.0
55.4
56.2
54.3
51.2
49.0
48.9
49.6
49.5
47.8
45.0
41.9
37.5
31.8
25.5
20.4
16.2
11.4
4.8
-1.7
-7.2
-12.3
-18.4
-25.1
-31.1
-36.6
-41.7
-46.2
-49.5
-52.0
-56.0
-61.5
-66.3
-67.5
-66.0
-64.3
-64.3
-65.5
-66.9
-67.8
-68.5
-69.4
-71.6
-74.7
-78.3
-81.2
-83.4
-84.9
-86.3
-87.1
-87.3
-87.1
-87.9
-91.5
-98.3
-105.6
-109.5
-108.0
-102.7
-96.6
-91.5
-87.9
-85.9
-86.0
-88.1
-90.5
-91.8
-91.6
-90.5
-88.7
-87.0
-86.2
-87.0
-89.0
-91.0
-92.3
-92.3
-91.0
-89.1
-88.2
-88.4
-89.3
-89.9
-89.3
-88.1
-87.4
-89.3
-94.0
-99.4
-102.2
-101.4
-98.6
-95.4
-91.3
-86.8
-83.1
-81.7
-82.9
-85.7
-87.4
-86.2
-82.5
-78.4
-75.5
-74.4
-74.2
-74.1
-72.8
-70.9
-68.9
-67.2
-66.3
-66.3
-67.5
-70.2
-73.3
-76.4
-78.7
-80.0
-79.3
-77.0
-73.9
-71.6
-70.3
-69.7
-68.6
-67.2
-66.4
-67.4
-70.2
-72.8
-74.2
-74.2
-73.6
-72.3
-70.8
-70.6
-72.3
-75.5
-78.6
-79.7
-77.6
-72.3
-65.3
-59.9
-59.3
-64.4
-71.9
-76.9
-75.9
-70.8
-65.2
-61.6
-58.8
-55.5
-52.1
-49.9
-49.5
-50.4
-51.5
-52.7
-54.3
-56.8
-59.3
-60.8
-61.1
-60.4
-58.7
-56.6
-54.3
-51.7
-48.2
-43.7
-39.1
-36.4
-36.3
-36.7
-36.3
-34.9
-33.3
-31.8
-30.4
-29.4
-30.0
-32.7
-36.6
-39.7
-40.6
-39.8
-39.7
-42.0
-47.0
-52.3
-55.1
-54.6
-53.7
-54.9
-59.0
-63.9
-67.4
-68.6
-68.0
-66.4
-64.3
-62.2
-62.2
-65.0
-70.6
-76.9
-81.4
-83.7
-83.9
-82.6
-80.1
-77.5
-75.8
-75.1
-75.0
-74.8
-74.1
-72.8
-71.9
-71.7
-72.7
-74.2
-75.9
-76.9
-76.4
-75.1
-74.5
-76.1
-80.9
-88.8
-99.7
-113.7
-130.2
-146.2
-158.3
-164.1
-162.9
-154.9
-140.3
-118.8
-90.5
-55.4
-14.2
30.8
77.5
124.4
171.1
215.3
254.8
288.1
315.3
337.2
353.8
364.1
366.4
360.2
347.6
331.1
311.4
288.2
261.9
233.5
204.1
174.4
144.7
115.4
88.5
67.8
56.0
52.4
52.4
52.0
49.5
45.6
41.4
37.5
35.0
34.1
33.9
31.4
24.6
13.6
0.8
-10.9
-20.2
-26.9
-32.1
-36.6
-40.8
-45.9
-52.6
-61.1
-69.9
-77.3
-83.4
-89.0
-96.1
-105.6
-116.5
-125.4
-129.3
-127.9
-124.1
-120.7
-118.1
-115.4
-113.1
-112.2
-112.5
-112.2
-110.4
-107.5
-104.7
-103.0
-103.3
-106.2
-110.8
-115.0
-117.0
-116.5
-114.3
-111.1
-106.7
-101.7
-96.8
-92.9
-89.8
-86.8
-84.0
-82.9
-85.6
-92.6
-100.6
-105.0
-103.3
-97.1
-89.1
-81.4
-75.0
-71.7
-72.2
-75.3
-78.9
-81.4
-82.0
-80.3
-76.2
-70.9
-66.6
-65.2
-67.1
-70.9
-74.8
-77.3
-77.2
-74.7
-72.0
-70.8
-69.9
-66.7
-61.5
-56.0
-52.1
-50.1
-49.8
-51.0
-53.5
-56.2
-57.3
-56.3
-54.0
-51.8
-50.7
-50.1
-49.8
-49.5
-49.6
-49.9
-49.6
-47.6
-44.0
-40.2
-38.1
-39.7
-43.1
-44.4
-40.6
-32.7
-23.8
-16.4
-10.6
-6.9
-4.8
-4.4
-4.2
-3.1
-1.6
-0.5
-0.3
-0.5
-0.5
0.6
3.6
9.2
17.6
27.7
37.4
44.8
49.0
50.4
50.7
50.9
51.8
53.7
55.5
56.2
54.9
52.3
50.1
50.3
53.8
59.7
65.7
69.9
71.4
70.2
66.6
60.8
54.0
46.7
39.2
30.5
20.6
11.5
5.2
1.0
-2.7
-7.2
-12.5
-17.9
-23.2
-28.3
-33.6
-40.5
-50.4
-62.9
-72.7
-75.5
-71.3
-64.6
-59.9
-59.4
-62.5
-67.4
-72.2
-75.0
-75.1
-74.2
-74.7
-77.6
-81.7
-85.3
-88.2
-91.2
-92.9
-91.8
-87.9
-83.2
-80.9
-82.0
-85.6
-89.5
-92.6
-94.0
-93.0
-90.7
-88.4
-87.3
-87.6
-89.3
-92.3
-95.8
-99.1
-101.0
-100.5
-97.9
-93.8
-89.9
-86.8
-84.5
-83.2
-82.8
-83.5
-85.7
-89.5
-94.0
-97.7
-99.6
-99.9
-100.3
-102.2
-105.6
-109.4
-112.2
-112.0
-107.8
-99.6
-90.5
-84.8
-84.9
-90.5
-97.1
-99.9
-97.5
-92.1
-85.9
-80.7
-76.7
-73.0
-68.8
-65.3
-63.9
-65.0
-67.2
-69.5
-71.4
-72.8
-74.2
-76.4
-79.3
-82.3
-82.9
-80.1
-74.8
-69.1
-64.7
-62.2
-61.8
-62.9
-64.7
-67.1
-69.9
-72.7
-74.8
-76.4
-77.5
-77.5
-76.1
-73.3
-70.3
-68.1
-67.1
-67.7
-69.5
-71.3
-71.9
-70.9
-69.1
-66.9
-64.9
-63.8
-64.3
-68.3
-77.9
-91.9
-104.1
-107.2
-99.6
-84.6
-67.2
-52.0
-41.2
-35.6
-33.8
-34.2
-35.8
-38.0
-40.6
-44.0
-48.2
-52.6
-56.6
-59.3
-59.3
-56.5
-52.3
-48.6
-45.8
-43.1
-40.0
-36.1
-31.9
-27.6
-23.8
-22.1
-23.0
-26.9
-33.6
-42.5
-49.5
-51.7
-49.3
-45.4
-43.3
-44.0
-47.3
-52.9
-59.7
-66.3
-70.6
-72.2
-71.9
-71.9
-73.3
-75.8
-78.7
-82.1
-85.1
-86.2
-84.2
-80.6
-78.1
-77.3
-77.2
-75.6
-71.6
-65.7
-59.6
-55.4
-54.5
-56.9
-61.8
-68.0
-75.1
-83.2
-90.1
-93.2
-91.0
-85.3
-78.7
-74.1
-72.5
-73.1
-75.8
-80.4
-88.4
-99.9
-114.3
-129.4
-143.1
-153.1
-157.7
-154.9
-143.4
-123.5
-96.6
-63.6
-25.4
16.4
59.7
104.1
149.6
194.7
237.0
274.2
304.7
328.2
345.4
356.0
359.6
356.3
346.7
330.7
307.5
277.8
243.0
205.0
166.3
128.6
94.7
66.7
46.5
33.9
26.8
23.5
24.9
30.8
38.3
43.0
42.5
38.1
31.6
24.0
16.4
9.2
2.8
-2.8
-9.0
-16.0
-23.4
-30.7
-36.6
-39.4
-39.1
-37.5
-37.7
-41.1
-48.1
-57.4
-68.1
-79.7
-92.3
-104.5
-113.6
-117.0
-115.6
-111.1
-105.0
-98.3
-92.3
-88.1
-87.4
-90.7
-96.8
-102.2
-104.5
-103.6
-101.1
-98.3
-95.2
-91.6
-88.1
-85.1
-83.4
-83.1
-84.2
-86.2
-88.1
-88.4
-87.1
-85.4
-84.5
-84.9
-86.0
-87.0
-86.2
-83.4
-79.2
-75.3
-74.2
-77.3
-82.8
-86.7
-86.8
-83.9
-80.4
-78.7
-78.7
-77.8
-74.1
-67.8
-61.1
-55.7
-52.1
-50.9
-52.7
-57.7
-64.7
-70.9
-74.7
-76.1
-76.2
-75.9
-74.4
-70.9
-65.5
-59.4
-54.3
-50.1
-46.5
-43.3
-40.2
-38.1
-38.1
-40.2
-43.6
-47.2
-49.9
-52.3
-54.9
-57.7
-59.6
-59.6
-56.9
-53.1
-50.4
-50.6
-52.7
-54.0
-52.0
-45.9
-36.7
-26.6
-17.8
-11.1
-6.2
-3.0
-1.6
-2.4
-5.8
-11.5
-17.3
-19.9
-17.0
-9.0
0.3
7.3
9.5
9.7
11.4
15.0
19.0
23.4
29.3
37.0
45.1
52.4
58.0
61.9
64.1
65.8
68.1
70.8
72.7
72.8
71.3
68.6
64.9
60.7
56.6
53.7
52.3
51.0
48.6
44.5
39.8
35.8
32.4
28.0
21.2
10.4
-3.6
-18.4
-29.7
-35.5
-36.4
-35.2
-33.0
-30.8
-29.3
-29.7
-32.7
-38.6
-46.7
-55.1
-61.3
-64.9
-66.7
-68.1
-70.2
-72.5
-75.8
-79.3
-82.8
-84.8
-84.6
-83.1
-81.1
-79.8
-79.8
-81.1
-83.2
-86.7
-90.2
-92.4
-91.2
-87.1
-82.9
-80.7
-80.7
-81.1
-80.7
-79.3
-77.6
-76.7
-76.5
-77.5
-78.6
-79.3
-80.0
-81.1
-82.9
-85.6
-88.2
-90.1
-90.7
-90.7
-90.7
-91.9
-94.4
-97.1
-98.0
-96.1
-91.8
-86.3
-81.5
-78.1
-76.2
-76.5
-79.5
-84.8
-91.3
-96.1
-97.2
-94.0
-89.6
-87.6
-88.1
-88.5
-86.5
-82.8
-79.2
-77.2
-75.9
-74.4
-72.3
-71.1
-71.4
-73.3
-75.1
-76.7
-78.7
-82.1
-85.6
-86.8
-84.9
-80.9
-76.2
-72.2
-69.1
-67.1
-65.3
-64.3
-64.1
-66.0
-69.9
-74.7
-79.8
-83.7
-84.9
-82.6
-77.3
-71.4
-66.9
-65.0
-65.5
-66.3
-65.3
-62.5
-59.9
-59.0
-60.2
-62.9
-65.5
-67.5
-68.1
-66.7
-63.5
-59.7
-57.3
-57.1
-59.4
-63.3
-67.1
-69.2
-68.8
-66.0
-63.2
-62.4
-63.0
-61.9
-56.8
-48.4
-39.4
-31.9
-27.1
-25.7
-28.0
-32.5
-36.4
-37.5
-35.6
-33.0
-31.0
-30.0
-30.2
-31.4
-33.2
-35.0
-37.2
-39.5
-41.9
-44.2
-47.9
-53.5
-59.7
-64.4
-66.3
-65.8
-64.9
-65.0
-65.8
-66.4
-65.8
-64.6
-63.6
-63.6
-64.9
-68.0
-73.9
-80.4
-84.2
-83.2
-78.9
-73.7
-69.4
-66.1
-63.5
-62.9
-65.3
-70.5
-75.1
-76.5
-74.7
-71.7
-69.2
-67.8
-67.2
-67.4
-68.0
-69.1
-70.5
-73.0
-77.3
-84.6
-97.1
-115.3
-136.0
-154.3
-166.1
-169.1
-162.7
-147.5
-125.1
-96.5
-62.4
-22.9
21.5
69.7
119.0
166.6
209.8
247.2
278.3
304.4
326.3
343.7
355.2
359.6
356.8
349.2
338.4
323.8
303.3
277.6
250.7
225.5
202.0
179.5
157.6
136.7
117.8
101.6
89.3
81.2
77.0
75.0
73.3
69.7
63.5
54.3
43.1
31.4
20.7
11.7
3.9
-3.6
-11.7
-19.3
-25.5
-29.7
-32.7
-35.5
-39.5
-45.9
-54.5
-64.3
-74.4
-83.7
-91.8
-98.5
-103.9
-109.2
-114.8
-119.9
-123.0
-123.4
-121.2
-117.0
-111.7
-107.3
-106.2
-110.6
-119.8
-130.2
-136.7
-136.9
-131.9
-124.9
-117.6
-110.3
-103.3
-97.7
-93.3
-89.0
-83.9
-78.1
-74.1
-73.7
-76.9
-81.7
-85.9
-87.9
-87.3
-84.3
-80.3
-76.7
-74.8
-75.1
-77.2
-79.7
-80.9
-80.3
-78.1
-75.0
-72.3
-71.3
-71.7
-73.3
-74.5
-75.0
-75.1
-75.1
-74.2
-72.3
-70.3
-69.5
-70.2
-70.2
-68.0
-65.0
-63.8
-66.1
-71.6
-78.1
-82.5
-81.5
-75.6
-67.8
-60.1
-52.0
-44.0
-37.7
-34.4
-34.4
-36.3
-38.0
-38.4
-37.4
-35.8
-35.3
-36.6
-39.4
-43.1
-47.2
-49.9
-49.9
-46.8
-42.2
-38.0
-35.5
-33.9
-32.7
-31.4
-30.2
-28.0
-23.8
-17.4
-10.9
-6.4
-5.2
-6.1
-7.3
-7.8
-7.5
-5.5
-1.3
4.1
8.9
12.3
15.6
20.9
28.5
36.7
43.9
48.9
51.3
51.5
49.5
46.4
43.6
42.2
42.5
43.9
45.4
47.0
49.0
52.0
55.7
59.1
61.0
60.4
57.1
51.7
44.5
36.3
27.4
19.5
13.2
8.7
5.2
1.1
-3.6
-9.8
-17.8
-27.1
-36.9
-45.6
-52.1
-56.5
-59.1
-60.2
-60.4
-60.1
-59.7
-59.7
-61.0
-63.9
-68.6
-73.9
-79.2
-84.9
-92.4
-101.0
-108.3
-112.0
-110.9
-105.8
-97.5
-86.7
-74.2
-62.7
-53.7
-48.4
-46.8
-49.0
-54.0
-60.2
-66.7
-73.7
-81.7
-88.8
-92.3
-91.6
-89.6
-88.1
-87.1
-85.6
-82.9
-80.4
-80.1
-82.5
-86.0
-88.8
-89.6
-88.8
-88.1
-89.0
-91.2
-93.2
-94.1
-93.3
-91.6
-89.3
-87.0
-84.9
-82.9
-80.9
-78.6
-76.5
-75.9
-77.8
-82.3
-89.1
-95.4
-98.3
-97.2
-94.0
-89.6
-85.1
-80.9
-76.5
-71.7
-66.3
-61.0
-57.6
-56.5
-58.5
-63.6
-71.3
-78.6
-82.3
-81.1
-77.0
-73.4
-71.3
-70.3
-69.4
-68.0
-66.1
-64.1
-63.2
-64.3
-67.8
-73.1
-79.0
-84.5
-87.6
-87.1
-83.4
-78.4
-74.1
-71.6
-71.3
-72.2
-72.5
-71.9
-70.6
-69.4
-68.0
-65.3
-61.6
-58.0
-55.5
-54.1
-53.8
-54.5
-56.3
-59.9
-65.2
-71.4
-76.1
-76.4
-71.7
-64.7
-59.3
-57.1
-57.3
-58.0
-58.8
-59.4
-58.5
-55.4
-50.7
-46.4
-43.6
-43.0
-43.7
-44.0
-42.0
-36.7
-30.2
-24.8
-22.0
-22.6
-26.2
-31.1
-36.6
-41.1
-44.2
-45.0
-43.9
-42.2
-41.4
-42.0
-43.9
-46.2
-48.2
-49.9
-52.0
-55.2
-60.2
-66.9
-74.4
-81.5
-88.1
-94.3
-100.3
-105.6
-108.0
-106.7
-102.7
-98.3
-94.7
-90.7
-85.1
-78.4
-72.8
-70.2
-70.2
-70.8
-70.6
-69.9
-69.4
-70.2
-72.0
-74.7
-77.9
-81.8
-85.6
-88.8
-91.9
-94.9
-96.3
-95.4
-92.7
-91.0
-94.1
-104.7
-120.4
-135.6
-146.2
-151.7
-153.7
-153.4
-149.3
-139.2
-120.7
-93.2
-57.6
-15.6
30.2
76.9
122.0
164.6
205.9
247.3
286.8
321.0
347.3
364.3
371.6
368.9
357.6
340.6
321.5
301.4
278.4
251.0
220.7
189.9
161.9
138.8
121.3
110.0
103.9
101.6
100.2
97.9
94.3
89.6
83.7
76.9
68.9
59.3
47.9
34.9
20.1
4.8
-9.7
-21.5
-29.4
-33.2
-34.4
-35.3
-38.4
-44.4
-52.6
-62.7
-74.2
-85.6
-95.7
-103.8
-110.6
-116.4
-120.6
-123.0
-124.3
-126.2
-129.3
-131.9
-131.8
-128.2
-122.0
-115.0
-109.4
-106.4
-106.9
-110.9
-116.4
-119.3
-116.5
-108.9
-100.8
-95.4
-93.5
-94.4
-96.9
-98.8
-98.9
-98.0
-97.7
-97.9
-96.0
-91.0
-84.6
-79.2
-75.6
-74.5
-75.1
-77.0
-79.2
-81.1
-82.0
-82.6
-82.9
-83.7
-84.9
-86.2
-87.1
-87.0
-85.6
-83.7
-82.9
-84.6
-88.5
-92.1
-93.2
-91.2
-86.5
-80.1
-74.1
-69.5
-68.3
-70.9
-76.5
-82.5
-84.9
-81.7
-74.1
-65.2
-57.4
-52.1
-49.8
-50.1
-52.4
-55.7
-59.9
-65.8
-72.2
-77.2
-78.1
-74.4
-66.7
-56.9
-47.9
-42.2
-40.2
-41.1
-44.2
-47.9
-50.4
-49.8
-46.1
-40.3
-32.8
-24.9
-17.8
-13.1
-10.6
-9.4
-8.4
-7.3
-6.1
-4.7
-3.9
-3.9
-4.8
-6.2
-7.6
-8.4
-6.9
-2.0
5.6
14.3
22.4
28.8
33.8
37.7
41.4
45.3
48.7
51.2
52.7
53.7
54.6
55.4
55.2
54.0
51.2
48.2
46.2
45.4
45.0
43.9
41.4
37.0
30.7
22.4
13.7
6.1
-0.5
-8.3
-18.7
-30.7
-40.9
-46.1
-44.5
-39.2
-33.6
-29.9
-28.5
-29.6
-32.8
-36.9
-41.1
-45.4
-50.6
-56.9
-64.1
-70.8
-75.1
-76.4
-75.0
-72.5
-70.9
-71.3
-73.9
-78.6
-83.7
-88.1
-90.4
-90.7
-90.2
-89.8
-89.5
-88.8
-87.6
-86.0
-84.5
-82.8
-80.6
-79.3
-79.8
-82.1
-85.6
-89.3
-91.6
-91.8
-90.9
-90.2
-90.7
-92.6
-96.0
-101.3
-107.8
-111.4
-108.9
-101.0
-92.1
-85.6
-81.2
-77.8
-75.3
-75.1
-77.8
-81.7
-84.0
-84.0
-82.3
-80.1
-78.1
-76.4
-75.9
-77.0
-79.0
-80.4
-80.9
-81.4
-82.6
-84.2
-84.8
-83.2
-79.7
-75.1
-71.4
-69.4
-69.1
-70.2
-72.8
-76.5
-80.1
-82.8
-83.5
-82.1
-79.0
-75.8
-72.8
-70.0
-66.9
-64.3
-62.9
-62.7
-63.5
-64.4
-65.2
-66.0
-66.3
-66.1
-66.1
-67.1
-69.1
-71.4
-73.7
-76.4
-79.2
-82.1
-84.3
-85.6
-85.4
-83.5
-80.6
-77.2
-73.9
-70.8
-68.9
-70.0
-73.3
-74.8
-72.0
-66.0
-58.8
-52.9
-48.9
-46.7
-46.8
-49.0
-52.3
-55.4
-57.6
-59.3
-60.2
-59.6
-57.3
-54.1
-51.8
-50.9
-50.9
-51.3
-53.2
-57.1
-61.8
-64.7
-63.3
-58.2
-50.7
-43.1
-35.8
-29.3
-24.6
-22.4
-23.2
-26.9
-33.5
-41.2
-46.4
-45.9
-40.3
-33.0
-27.1
-24.8
-25.7
-28.8
-33.6
-39.1
-45.1
-51.3
-57.6
-62.7
-66.6
-69.4
-71.7
-73.7
-75.5
-76.2
-77.5
-80.7
-86.5
-91.3
-91.8
-88.8
-85.9
-84.5
-83.2
-80.6
-76.5
-72.7
-69.7
-67.4
-65.5
-64.4
-65.8
-71.7
-81.2
-89.8
-92.6
-89.9
-84.5
-78.4
-72.7
-67.5
-63.5
-62.5
-67.5
-79.5
-96.1
-113.9
-129.1
-140.2
-146.2
-147.3
-142.6
-131.0
-112.2
-85.6
-50.7
-7.3
43.0
96.6
149.0
196.9
238.4
273.3
302.0
325.5
343.7
355.4
359.6
356.5
347.9
335.5
319.9
300.8
278.1
251.2
218.7
181.7
143.7
110.3
84.8
67.4
56.8
51.5
51.2
55.4
61.5
65.2
64.6
60.7
55.5
50.6
45.3
38.3
29.1
17.6
3.6
-12.0
-26.9
-37.2
-40.9
-40.0
-37.8
-36.4
-36.9
-40.3
-46.7
-54.8
-63.2
-71.7
-80.7
-91.0
-102.7
-114.6
-124.3
-128.8
-127.6
-122.7
-117.0
-112.0
-108.4
-106.1
-105.3
-106.2
-109.2
-112.8
-114.0
-111.1
-105.0
-98.5
-93.5
-90.5
-90.1
-92.4
-97.2
-101.9
-104.1
-103.4
-101.9
-100.2
-97.2
-92.1
-85.4
-79.2
-74.7
-72.5
-72.0
-73.0
-74.5
-75.6
-75.5
-74.7
-74.5
-76.4
-80.1
-83.9
-86.2
-87.1
-87.4
-86.5
-84.5
-82.1
-79.8
-76.5
-72.0
-67.5
-64.4
-62.5
-62.1
-63.0
-65.2
-68.5
-71.9
-74.5
-74.4
-70.8
-64.7
-58.3
-53.7
-52.0
-53.2
-55.7
-57.3
-57.1
-55.4
-53.2
-52.4
-54.0
-58.5
-65.0
-71.7
-75.6
-74.1
-67.2
-58.2
-49.6
-42.5
-36.9
-33.3
-31.6
-30.5
-28.0
-24.0
-19.5
-15.6
-12.5
-9.5
-7.0
-5.3
-5.0
-6.9
-10.9
-14.6
-15.7
-13.2
-8.6
-2.5
5.3
15.0
24.6
32.5
38.3
42.0
44.4
45.6
46.1
45.9
45.9
47.6
51.2
55.9
60.4
63.3
64.4
62.5
57.3
49.6
43.3
41.1
43.7
48.2
50.4
47.5
40.8
34.2
30.4
27.7
23.8
17.9
10.4
2.7
-4.7
-10.4
-14.5
-17.8
-22.0
-28.3
-36.6
-45.8
-54.0
-60.7
-65.3
-68.6
-70.6
-72.3
-74.4
-76.7
-78.9
-80.3
-80.4
-80.6
-81.5
-82.1
-82.0
-81.8
-82.9
-84.8
-86.0
-85.7
-84.5
-82.8
-81.5
-82.3
-86.2
-92.1
-97.2
-98.5
-95.2
-89.3
-83.2
-78.7
-76.7
-77.0
-79.0
-82.5
-87.6
-94.3
-100.6
-103.9
-103.9
-103.9
-106.2
-109.0
-108.6
-103.8
-97.1
-91.3
-87.3
-85.4
-85.3
-86.3
-88.4
-91.0
-93.7
-96.9
-100.2
-102.2
-101.6
-98.2
-92.7
-87.0
-82.1
-78.9
-77.3
-77.5
-79.2
-81.8
-84.5
-85.7
-86.0
-87.3
-90.4
-93.2
-93.0
-89.5
-84.9
-82.9
-84.6
-88.4
-90.7
-89.0
-83.9
-78.4
-74.7
-72.8
-71.7
-70.6
-70.0
-70.2
-70.8
-71.7
-72.5
-73.0
-73.0
-72.5
-72.2
-73.0
-75.9
-79.7
-81.7
-80.9
-78.3
-75.1
-72.2
-70.2
-70.5
-72.3
-73.4
-72.0
-69.2
-67.5
-67.7
-69.1
-70.2
-70.6
-71.3
-71.9
-71.9
-71.1
-70.3
-70.0
-70.3
-70.3
-68.5
-65.0
-62.7
-63.5
-66.1
-67.7
-66.9
-65.7
-66.4
-69.7
-72.7
-71.7
-65.8
-56.2
-45.9
-38.0
-34.1
-33.3
-33.2
-32.5
-32.5
-35.2
-40.9
-47.3
-50.6
-49.8
-46.7
-43.7
-42.6
-43.0
-43.9
-45.1
-45.8
-45.6
-45.3
-46.2
-49.5
-55.4
-63.2
-70.8
-77.0
-81.2
-84.3
-86.7
-88.5
-90.9
-93.3
-94.6
-93.3
-89.8
-84.9
-80.4
-78.1
-79.3
-83.1
-86.2
-85.9
-82.6
-78.1
-74.4
-72.5
-73.3
-76.7
-82.1
-87.3
-89.0
-86.5
-82.3
-79.2
-77.5
-76.5
-76.7
-80.0
-88.8
-102.8
-118.4
-131.8
-142.0
-150.1
-156.0
-158.3
-155.4
-147.3
-132.7
-109.4
-76.2
-34.9
10.9
58.2
104.8
149.5
191.3
229.9
264.7
295.1
319.3
336.3
345.9
349.6
349.6
346.4
338.9
325.7
304.7
275.6
239.5
200.8
163.9
132.8
107.6
87.4
71.7
59.7
50.9
44.2
39.4
36.3
34.9
34.7
34.6
32.8
27.9
19.2
7.8
-2.8
-10.0
-13.4
-14.8
-16.4
-19.0
-22.9
-27.7
-32.8
-38.6
-45.1
-51.8
-58.3
-64.7
-72.8
-83.2
-94.0
-102.4
-108.0
-111.4
-112.9
-112.0
-108.9
-105.5
-103.6
-103.8
-105.2
-107.3
-109.4
-110.6
-111.7
-113.2
-115.7
-117.8
-117.1
-112.9
-105.5
-97.1
-90.2
-88.4
-93.2
-101.9
-108.9
-110.8
-108.0
-103.0
-97.4
-91.6
-85.6
-80.4
-76.9
-75.5
-75.8
-77.3
-80.1
-85.1
-92.1
-98.5
-101.6
-99.9
-94.9
-89.1
-84.8
-82.6
-81.5
-81.2
-81.7
-82.5
-82.3
-81.2
-79.3
-77.6
-76.9
-78.9
-83.5
-89.1
-91.9
-89.5
-81.4
-70.5
-60.5
-53.8
-51.2
-52.1
-55.5
-59.3
-61.8
-62.4
-61.1
-59.4
-59.0
-60.5
-63.6
-66.1
-67.2
-67.2
-66.1
-63.0
-57.9
-52.6
-48.6
-45.9
-44.4
-43.4
-43.4
-44.8
-48.1
-52.7
-56.6
-57.1
-52.7
-44.5
-34.2
-24.6
-18.5
-16.7
-16.5
-15.3
-12.3
-8.9
-5.0
0.0
6.2
13.2
19.6
24.8
28.5
31.3
33.3
35.3
37.0
37.8
36.4
34.4
34.6
38.9
46.1
53.4
58.5
61.0
61.6
61.8
61.5
59.4
54.8
48.4
43.3
41.1
41.2
41.4
40.0
35.6
27.2
15.7
4.2
-3.6
-6.9
-8.1
-10.3
-15.7
-25.4
-37.2
-47.0
-51.5
-51.2
-50.1
-51.2
-54.5
-57.9
-59.7
-60.5
-60.5
-60.1
-59.7
-60.7
-63.9
-69.2
-75.3
-78.7
-78.1
-74.4
-70.3
-67.8
-67.4
-68.9
-72.3
-76.1
-78.9
-80.4
-81.2
-82.5
-85.4
-90.1
-94.7
-96.8
-95.1
-90.2
-84.3
-79.7
-78.3
-80.9
-85.7
-90.1
-91.8
-91.5
-90.5
-89.6
-88.5
-86.5
-84.0
-83.1
-84.8
-88.5
-91.8
-93.3
-93.5
-93.7
-95.4
-99.9
-105.6
-108.7
-107.2
-101.3
-92.7
-83.4
-74.8
-68.3
-64.3
-63.2
-64.6
-67.2
-69.9
-71.4
-72.0
-73.0
-74.5
-76.5
-78.6
-80.4
-82.3
-84.9
-87.4
-88.2
-86.7
-83.7
-80.4
-77.8
-76.9
-77.8
-78.9
-77.6
-74.7
-72.0
-71.6
-73.9
-78.3
-84.0
-89.6
-93.2
-92.4
-86.8
-79.2
-73.0
-70.2
-69.1
-67.5
-64.6
-61.6
-60.2
-61.6
-65.5
-70.3
-73.3
-73.1
-70.5
-67.4
-65.3
-64.7
-66.4
-69.9
-73.9
-77.0
-78.1
-76.4
-72.0
-66.1
-60.7
-57.3
-55.9
-55.4
-55.2
-55.2
-54.9
-54.6
-54.6
-55.5
-57.7
-59.7
-60.1
-58.2
-55.4
-53.1
-51.5
-50.1
-48.2
-47.3
-48.9
-53.1
-57.7
-59.9
-58.5
-54.6
-51.8
-53.2
-59.3
-66.4
-70.8
-70.3
-66.1
-60.1
-54.9
-53.7
-57.7
-64.9
-71.7
-75.5
-75.9
-75.8
-77.0
-80.3
-83.9
-85.6
-84.6
-82.0
-79.0
-77.3
-77.3
-79.2
-82.3
-85.7
-89.3
-93.0
-96.0
-96.8
-95.1
-92.1
-89.6
-87.4
-84.6
-80.9
-76.9
-73.6
-72.5
-75.0
-80.4
-86.5
-90.7
-93.2
-96.5
-104.1
-116.5
-132.5
-150.1
-166.3
-177.6
-180.1
-171.1
-150.1
-118.4
-78.4
-32.8
15.7
64.3
110.4
153.8
195.8
237.7
278.3
314.6
343.7
365.7
381.2
391.0
394.0
389.3
377.2
358.2
334.1
306.2
276.1
244.2
211.7
180.1
151.3
126.5
104.8
85.9
70.0
59.0
53.7
53.1
54.8
56.2
55.2
50.6
42.0
30.7
18.2
5.9
-5.8
-17.3
-28.0
-36.4
-41.4
-43.6
-44.7
-45.9
-47.2
-48.7
-50.9
-54.5
-59.9
-67.5
-77.8
-91.6
-108.4
-124.3
-134.7
-138.4
-136.6
-132.1
-126.8
-121.8
-118.4
-117.9
-121.2
-126.3
-130.7
-132.2
-130.0
-124.3
-117.0
-109.8
-104.5
-101.3
-99.6
-99.1
-100.2
-103.0
-107.3
-112.2
-116.4
-119.8
-121.6
-120.6
-115.3
-106.9
-98.3
-92.6
-89.9
-89.6
-90.1
-90.5
-90.5
-90.1
-89.9
-90.9
-92.7
-94.4
-95.1
-94.1
-92.3
-91.0
-91.2
-92.6
-93.0
-91.5
-88.8
-86.5
-85.7
-86.8
-89.0
-90.9
-91.2
-90.7
-90.5
-91.0
-91.6
-89.9
-84.5
-75.5
-66.1
-59.7
-56.9
-54.9
-51.7
-47.3
-43.9
-43.6
-46.8
-51.8
-55.7
-57.4
-57.3
-56.2
-54.3
-52.1
-50.1
-49.2
-49.0
-49.3
-49.5
-48.4
-45.4
-41.4
-37.2
-34.2
-33.0
-33.8
-35.3
-36.1
-33.9
-29.1
-22.7
-16.2
-10.4
-6.4
-4.5
-4.8
-5.3
-3.9
0.0
5.0
9.4
12.5
15.0
18.1
21.2
23.7
25.5
27.4
30.0
31.3
29.7
27.7
29.1
35.2
43.0
47.9
48.6
47.8
47.8
49.6
52.7
56.5
59.7
61.1
59.4
54.8
47.3
37.2
25.4
13.4
3.3
-3.9
-9.0
-14.0
-19.9
-26.6
-33.0
-38.4
-42.8
-46.7
-51.0
-56.3
-61.9
-66.0
-67.5
-67.8
-68.5
-69.9
-72.2
-74.2
-75.3
-75.5
-75.1
-75.1
-75.5
-76.2
-77.2
-77.2
-76.5
-76.1
-77.8
-82.9
-91.3
-99.4
-103.0
-100.5
-94.1
-87.9
-84.8
-84.8
-85.9
-85.6
-83.9
-81.7
-80.1
-79.2
-78.9
-79.8
-81.5
-82.3
-81.7
-80.4
-79.7
-78.9
-77.3
-75.0
-73.7
-74.8
-79.3
-86.7
-93.8
-96.9
-94.9
-90.1
-85.1
-81.7
-79.2
-77.3
-76.7
-77.5
-79.0
-80.3
-80.3
-79.7
-79.8
-80.4
-80.4
-78.9
-76.1
-73.6
-72.3
-73.3
-77.0
-83.2
-89.1
-92.3
-92.3
-90.9
-90.5
-91.6
-91.9
-89.1
-82.9
-75.0
-67.7
-62.1
-57.4
-53.8
-52.3
-54.8
-61.3
-69.7
-76.9
-80.3
-79.0
-73.9
-67.7
-63.2
-61.0
-60.5
-60.7
-61.8
-63.5
-65.3
-66.3
-66.7
-67.5
-70.3
-75.0
-79.2
-80.4
-78.4
-75.3
-73.0
-71.9
-70.8
-69.4
-67.7
-67.2
-69.1
-73.6
-78.7
-80.9
-78.1
-71.7
-65.5
-62.2
-61.1
-59.9
-57.9
-55.7
-54.1
-53.5
-54.3
-56.2
-58.8
-61.5
-63.5
-63.6
-62.1
-61.5
-62.9
-64.6
-62.7
-55.7
-45.4
-35.3
-28.5
-25.8
-26.3
-27.7
-27.9
-27.1
-26.9
-29.1
-33.0
-36.7
-39.2
-40.6
-41.7
-42.3
-42.0
-40.5
-38.8
-38.0
-38.8
-41.1
-44.5
-48.9
-54.6
-61.6
-69.5
-77.0
-82.6
-85.9
-86.7
-85.1
-82.1
-79.5
-78.1
-78.9
-80.3
-80.4
-78.9
-77.6
-78.6
-83.2
-89.3
-93.3
-94.0
-91.5
-86.0
-78.3
-69.7
-62.7
-59.0
-59.1
-62.5
-66.9
-70.0
-73.0
-76.9
-80.9
-83.2
-83.7
-84.6
-89.5
-99.7
-114.6
-131.4
-146.4
-155.5
-155.5
-144.0
-121.0
-88.2
-48.6
-5.3
39.7
85.7
131.0
173.4
211.7
247.3
282.5
315.9
343.9
363.6
374.2
376.5
372.2
362.7
347.9
328.0
303.1
275.0
245.3
215.0
184.2
154.3
127.7
107.0
92.3
79.8
66.7
54.0
46.1
46.7
53.7
60.8
63.0
59.7
53.8
47.5
40.9
33.3
24.0
12.9
0.6
-11.2
-21.5
-29.6
-35.8
-41.9
-48.4
-56.0
-64.6
-74.7
-86.3
-98.9
-110.6
-120.1
-125.7
-126.9
-124.8
-121.3
-118.5
-117.6
-117.9
-119.3
-121.0
-121.6
-119.8
-115.6
-110.9
-107.8
-107.0
-107.3
-108.0
-108.7
-109.8
-110.6
-110.3
-110.1
-111.4
-113.1
-113.1
-110.4
-105.8
-101.4
-98.8
-97.9
-97.9
-97.9
-96.9
-95.8
-94.9
-94.1
-92.4
-89.1
-86.3
-85.9
-87.6
-89.8
-90.2
-88.1
-83.7
-80.0
-80.0
-83.9
-88.1
-88.8
-85.4
-79.8
-73.7
-68.6
-65.3
-65.0
-68.5
-75.3
-83.1
-87.9
-87.3
-81.4
-73.6
-66.6
-62.7
-62.2
-63.8
-65.8
-66.1
-63.3
-58.3
-53.4
-51.7
-54.6
-59.9
-64.1
-64.9
-63.0
-60.1
-56.3
-52.7
-50.4
-50.3
-52.3
-54.6
-55.1
-53.1
-48.6
-43.1
-37.7
-33.2
-30.0
-28.8
-29.9
-31.8
-31.1
-26.6
-18.8
-10.4
-3.6
0.5
1.9
1.6
2.4
6.2
12.8
19.0
22.6
24.1
25.7
28.8
33.6
39.1
43.7
47.3
49.2
49.3
48.1
45.6
43.1
42.5
45.3
51.0
57.1
60.5
60.1
56.6
52.7
50.1
48.4
46.1
41.2
33.5
22.9
10.9
0.0
-8.6
-14.8
-22.0
-31.4
-41.1
-46.8
-46.5
-41.4
-33.8
-26.3
-20.9
-19.0
-21.5
-29.0
-39.8
-51.5
-61.6
-68.6
-72.3
-73.6
-73.9
-74.8
-76.7
-79.2
-81.5
-83.5
-84.8
-84.9
-84.2
-82.8
-82.0
-82.8
-85.6
-90.1
-94.4
-96.6
-95.7
-92.7
-89.6
-87.7
-87.4
-87.7
-88.1
-88.7
-89.8
-91.2
-92.9
-94.4
-96.1
-98.3
-101.4
-105.9
-110.8
-115.1
-118.7
-120.2
-117.8
-110.6
-101.3
-92.9
-86.8
-83.1
-80.7
-79.5
-79.0
-79.0
-79.2
-79.7
-80.1
-79.7
-77.9
-76.4
-76.9
-81.1
-87.3
-92.9
-95.2
-93.7
-89.1
-83.2
-77.5
-73.0
-71.3
-73.0
-77.0
-81.4
-84.0
-84.6
-83.4
-81.7
-80.9
-82.3
-86.8
-94.1
-102.8
-109.2
-109.4
-101.9
-89.9
-77.6
-68.6
-63.6
-61.8
-60.5
-57.9
-54.5
-52.4
-53.4
-57.1
-61.1
-63.6
-63.9
-62.9
-61.9
-62.1
-63.9
-67.2
-71.3
-75.1
-77.5
-77.5
-75.0
-71.1
-67.5
-65.8
-66.7
-69.9
-74.4
-79.5
-83.5
-84.5
-82.3
-77.9
-72.8
-67.4
-62.4
-59.0
-57.4
-58.0
-60.7
-66.0
-73.9
-82.5
-88.2
-88.2
-83.4
-76.2
-68.3
-60.2
-53.1
-49.9
-52.4
-58.5
-63.3
-62.9
-56.9
-47.9
-38.9
-32.2
-28.8
-28.5
-30.7
-34.6
-38.9
-41.2
-40.3
-36.9
-33.8
-33.6
-35.8
-38.1
-38.9
-38.3
-37.5
-37.2
-36.7
-36.0
-36.0
-38.4
-45.0
-53.7
-60.1
-61.0
-58.0
-54.9
-53.8
-54.8
-56.8
-59.3
-62.4
-66.3
-70.8
-75.5
-80.1
-85.6
-91.8
-97.2
-99.1
-96.0
-89.3
-82.3
-76.7
-71.9
-67.2
-62.7
-59.4
-58.0
-58.3
-59.4
-61.9
-66.7
-73.4
-79.3
-81.5
-79.5
-75.5
-71.7
-69.2
-68.1
-68.6
-72.2
-80.3
-93.8
-110.6
-127.6
-141.2
-149.3
-151.8
-149.3
-141.9
-127.4
-104.2
-72.7
-34.2
9.2
56.9
107.0
156.9
203.8
244.5
277.8
303.6
323.5
338.4
348.7
354.6
355.4
351.3
343.0
331.1
315.0
291.5
259.1
219.8
179.0
143.9
118.5
103.1
94.4
89.1
84.8
80.7
77.8
75.5
72.3
67.1
59.9
51.8
42.8
31.3
17.1
3.0
-8.3
-15.3
-18.2
-19.0
-19.8
-23.2
-29.9
-38.1
-46.8
-55.2
-62.9
-68.9
-73.4
-77.8
-84.0
-93.2
-104.2
-114.6
-122.0
-125.1
-125.1
-124.6
-124.9
-125.1
-123.7
-120.4
-116.4
-113.4
-113.4
-116.0
-118.8
-119.0
-115.7
-111.1
-108.1
-107.5
-107.0
-104.4
-100.2
-96.5
-94.7
-94.4
-94.3
-93.8
-93.2
-93.2
-94.0
-95.2
-96.6
-98.8
-101.9
-105.2
-107.3
-107.5
-104.8
-98.8
-90.4
-81.8
-75.6
-71.7
-69.4
-68.3
-68.6
-70.3
-73.1
-76.1
-78.6
-79.5
-78.9
-77.0
-74.5
-73.1
-73.1
-74.2
-75.9
-78.3
-81.4
-84.6
-86.5
-85.9
-82.5
-77.2
-72.0
-68.9
-67.8
-67.1
-65.0
-60.8
-55.5
-51.7
-51.7
-56.6
-64.1
-69.7
-69.7
-63.8
-54.1
-44.0
-35.8
-30.7
-28.5
-29.1
-32.2
-36.7
-41.6
-44.5
-44.2
-40.3
-34.9
-30.2
-27.9
-26.8
-24.8
-20.4
-14.3
-8.4
-4.1
-1.3
0.2
1.4
3.0
5.3
8.6
11.7
13.1
13.2
14.2
17.1
21.8
26.8
30.4
32.4
34.9
38.9
44.2
49.5
54.3
59.7
66.0
72.0
75.9
75.9
71.4
63.2
52.6
41.2
31.4
25.5
24.3
25.7
27.1
26.5
22.6
15.3
5.3
-5.3
-14.6
-21.2
-24.6
-26.8
-30.4
-36.3
-43.0
-47.8
-50.3
-51.3
-52.4
-53.8
-56.8
-61.5
-67.2
-72.3
-75.6
-77.8
-80.4
-83.4
-85.6
-86.8
-88.5
-91.5
-94.1
-94.0
-90.2
-84.9
-81.4
-82.3
-88.4
-96.3
-101.0
-99.9
-94.7
-89.1
-86.7
-87.9
-91.6
-95.4
-96.6
-94.6
-90.4
-85.9
-83.4
-84.3
-88.1
-93.3
-98.5
-102.5
-103.8
-101.3
-96.9
-92.6
-89.9
-89.6
-91.0
-93.2
-94.7
-94.1
-90.7
-86.0
-82.3
-81.2
-82.5
-84.6
-86.0
-86.3
-86.5
-87.7
-90.4
-93.8
-97.4
-101.3
-104.8
-106.2
-103.1
-94.7
-83.5
-73.6
-67.8
-66.4
-68.0
-70.8
-73.7
-75.3
-75.0
-73.1
-72.0
-72.7
-74.4
-75.1
-73.9
-72.2
-72.2
-73.7
-74.5
-73.0
-70.2
-68.3
-68.5
-69.5
-70.6
-71.6
-73.0
-74.1
-73.6
-71.7
-69.5
-67.8
-66.4
-65.7
-65.7
-66.4
-67.4
-68.3
-69.4
-70.9
-72.3
-72.8
-72.3
-72.0
-73.0
-75.3
-78.3
-80.3
-79.8
-76.7
-71.4
-65.8
-61.6
-60.1
-61.1
-63.8
-67.2
-71.9
-77.9
-83.2
-84.9
-83.7
-82.8
-82.6
-80.7
-74.5
-65.5
-57.1
-51.3
-48.2
-46.8
-46.7
-47.5
-48.4
-48.9
-48.7
-48.2
-48.1
-49.0
-50.3
-50.9
-50.1
-47.9
-45.0
-43.3
-43.3
-43.9
-43.1
-40.5
-37.0
-33.5
-30.0
-26.5
-23.5
-22.7
-24.9
-29.4
-35.5
-43.4
-52.7
-61.6
-66.4
-64.9
-57.9
-49.0
-42.2
-39.4
-41.1
-46.1
-52.3
-58.3
-63.0
-65.5
-67.4
-70.6
-75.1
-78.9
-80.1
-78.6
-75.5
-71.9
-68.6
-66.9
-66.9
-67.7
-68.1
-67.7
-66.9
-66.9
-67.8
-69.7
-71.6
-73.0
-74.7
-77.6
-81.8
-84.9
-84.3
-79.8
-73.3
-68.5
-67.4
-69.7
-73.4
-77.0
-81.4
-88.8
-100.8
-117.0
-134.6
-149.9
-159.7
-162.1
-157.1
-145.4
-127.7
-103.1
-70.5
-29.3
19.9
74.8
129.7
177.8
216.7
249.3
280.4
311.7
340.5
363.0
377.3
382.6
379.0
366.9
347.2
320.4
287.0
249.2
211.4
177.8
149.2
124.3
102.4
83.5
68.5
57.7
51.8
50.6
52.9
56.2
57.3
54.1
46.8
37.5
29.0
22.6
17.3
11.5
3.3
-7.3
-18.8
-29.1
-36.4
-40.0
-40.6
-39.5
-38.3
-38.6
-41.9
-47.9
-55.5
-63.2
-70.5
-79.2
-89.9
-102.0
-113.4
-120.4
-120.6
-114.6
-106.2
-98.0
-91.6
-87.7
-87.1
-89.6
-94.7
-101.4
-107.5
-110.1
-108.1
-102.4
-95.2
-89.1
-85.9
-86.2
-89.3
-92.4
-92.4
-89.5
-86.2
-84.6
-84.6
-85.4
-86.7
-87.3
-85.9
-81.8
-76.4
-72.5
-72.2
-74.8
-78.3
-80.9
-82.1
-81.8
-80.3
-78.1
-75.9
-74.7
-74.2
-74.4
-74.2
-73.0
-70.9
-69.2
-68.5
-68.6
-68.9
-68.0
-65.0
-60.5
-56.0
-53.2
-54.0
-58.5
-64.3
-68.1
-68.0
-64.4
-59.1
-54.8
-53.5
-55.4
-57.4
-57.4
-55.2
-51.3
-46.2
-40.9
-36.4
-33.3
-32.1
-33.2
-36.3
-40.3
-43.3
-42.6
-38.9
-34.1
-30.8
-30.7
-33.8
-38.4
-41.9
-41.9
-37.7
-29.3
-18.8
-9.7
-4.1
-2.5
-3.3
-5.0
-7.2
-8.7
-8.6
-7.6
-7.8
-8.9
-8.1
-2.7
7.6
20.6
32.2
40.2
44.2
45.9
47.2
48.9
51.5
54.9
59.9
66.4
73.7
80.0
83.7
84.0
81.1
76.4
71.7
68.1
65.3
62.9
60.1
56.6
52.6
47.5
40.6
31.6
20.6
9.7
1.3
-4.2
-8.1
-11.1
-13.1
-14.8
-17.4
-21.5
-27.4
-35.6
-45.6
-54.9
-62.5
-68.5
-72.7
-74.2
-72.5
-69.1
-66.9
-68.1
-72.7
-77.2
-77.9
-73.9
-68.0
-63.6
-62.9
-65.7
-71.4
-78.7
-85.7
-90.7
-93.0
-94.0
-94.9
-96.1
-96.1
-92.9
-86.3
-78.3
-71.6
-67.7
-67.1
-69.2
-74.2
-81.2
-89.3
-96.5
-100.2
-99.3
-94.9
-90.1
-87.1
-85.9
-84.9
-83.9
-82.3
-81.2
-81.5
-84.0
-88.4
-92.7
-95.4
-96.0
-95.2
-93.5
-90.5
-86.5
-82.5
-79.5
-77.9
-78.7
-81.8
-85.6
-87.1
-85.9
-83.1
-80.1
-77.3
-74.7
-72.5
-70.8
-68.8
-65.8
-62.9
-61.3
-62.2
-65.5
-70.5
-76.1
-80.3
-81.7
-81.1
-79.5
-78.1
-77.0
-76.5
-75.8
-73.9
-70.8
-67.2
-64.3
-63.0
-64.1
-66.6
-68.5
-68.6
-67.4
-66.6
-68.9
-74.4
-80.1
-82.1
-79.5
-75.1
-71.6
-68.9
-66.4
-65.3
-68.5
-75.6
-82.6
-84.5
-80.0
-70.8
-60.5
-52.1
-48.1
-48.6
-52.0
-55.9
-59.0
-61.3
-62.4
-63.0
-63.9
-66.1
-69.9
-74.8
-79.3
-80.3
-75.9
-67.1
-56.6
-47.6
-42.3
-41.7
-45.8
-52.9
-59.9
-62.7
-59.9
-53.5
-46.8
-42.3
-40.6
-40.5
-39.5
-36.3
-31.4
-26.9
-24.1
-23.7
-26.5
-32.7
-40.8
-47.8
-50.7
-48.7
-43.1
-37.0
-32.7
-31.1
-33.0
-38.3
-45.3
-49.8
-50.3
-49.3
-50.7
-56.3
-65.0
-74.1
-80.3
-81.1
-76.4
-68.9
-62.1
-58.3
-57.7
-59.0
-61.1
-63.0
-64.4
-66.1
-69.1
-73.9
-79.5
-84.0
-85.9
-85.3
-83.4
-81.1
-79.5
-79.8
-82.1
-85.3
-87.3
-86.8
-83.7
-78.9
-73.7
-70.8
-71.6
-76.7
-83.9
-91.2
-98.5
-107.6
-119.5
-133.5
-146.7
-155.4
-156.3
-149.0
-134.1
-112.2
-85.3
-54.9
-21.8
15.1
57.4
103.6
151.2
197.4
241.7
283.7
321.6
352.6
374.5
387.3
391.2
387.6
378.3
363.5
343.4
318.4
289.0
256.9
223.8
191.2
159.4
130.8
107.8
91.9
82.6
77.8
75.0
73.1
71.3
68.3
63.5
56.6
48.1
38.0
26.6
14.0
0.6
-12.8
-24.4
-32.2
-35.5
-35.8
-35.5
-35.3
-35.0
-34.6
-35.6
-40.3
-48.6
-58.7
-69.7
-80.3
-89.3
-96.6
-103.8
-110.9
-115.7
-115.4
-110.1
-102.7
-96.1
-91.9
-90.2
-90.1
-91.6
-94.6
-97.9
-101.0
-104.4
-108.4
-111.5
-110.8
-105.2
-96.9
-89.6
-85.3
-84.3
-86.0
-89.0
-91.3
-91.3
-88.5
-84.8
-82.1
-81.1
-80.9
-80.4
-79.5
-77.9
-75.8
-73.7
-74.1
-78.9
-86.7
-92.6
-93.2
-89.5
-85.3
-83.2
-83.1
-81.8
-76.5
-68.0
-59.9
-54.9
-53.4
-53.2
-52.9
-52.6
-53.1
-54.9
-57.3
-58.3
-57.3
-54.3
-50.7
-48.2
-47.6
-47.9
-49.0
-51.2
-54.0
-56.6
-57.6
-56.0
-53.2
-49.9
-46.7
-43.6
-41.4
-40.8
-41.4
-41.9
-40.2
-36.1
-31.1
-27.2
-25.5
-26.2
-27.9
-30.2
-33.5
-37.8
-42.5
-46.5
-48.1
-46.7
-41.4
-31.9
-19.3
-5.6
6.2
15.0
19.6
21.3
22.0
22.9
24.8
27.6
30.5
32.5
32.2
29.9
27.4
27.2
29.7
34.2
38.9
42.6
45.6
47.9
50.3
52.0
52.9
53.5
54.6
56.0
56.9
55.9
53.2
50.7
50.7
53.4
56.9
58.0
54.5
46.4
35.6
25.5
18.1
13.6
10.0
5.6
-1.1
-10.9
-21.6
-30.4
-35.5
-37.5
-36.3
-31.9
-26.5
-22.6
-22.4
-25.7
-31.1
-38.0
-45.1
-51.8
-56.9
-60.1
-61.6
-62.9
-64.6
-67.2
-70.5
-73.7
-76.2
-77.9
-79.5
-82.6
-87.6
-92.9
-96.3
-96.8
-94.6
-91.0
-87.7
-84.3
-80.3
-75.3
-70.6
-67.4
-66.7
-69.2
-73.4
-76.4
-76.9
-75.9
-75.0
-74.1
-72.2
-69.9
-67.8
-67.1
-68.0
-70.5
-74.5
-81.2
-89.6
-97.2
-100.3
-97.4
-90.9
-84.0
-79.3
-77.0
-76.2
-76.4
-76.9
-77.5
-78.1
-78.9
-80.3
-81.5
-81.4
-78.9
-74.2
-67.4
-59.7
-53.1
-49.2
-49.2
-52.9
-60.2
-69.7
-79.5
-85.9
-87.0
-83.5
-79.2
-76.7
-77.2
-79.2
-79.7
-76.2
-68.8
-59.6
-51.7
-47.3
-47.2
-49.8
-53.1
-55.4
-57.3
-58.8
-60.2
-62.4
-66.4
-71.9
-75.6
-75.3
-72.2
-68.6
-66.0
-63.6
-61.6
-60.7
-61.0
-62.2
-62.7
-60.8
-57.6
-55.4
-55.1
-56.0
-57.4
-59.3
-61.8
-63.0
-62.4
-60.1
-57.1
-54.6
-52.9
-52.1
-51.8
-51.7
-51.8
-52.6
-54.5
-57.1
-59.0
-59.3
-59.0
-58.2
-56.8
-54.1
-50.6
-47.3
-45.6
-45.4
-46.8
-49.2
-52.1
-54.1
-54.5
-53.5
-52.3
-51.5
-51.0
-51.8
-55.9
-62.1
-65.5
-62.1
-52.3
-40.3
-30.4
-24.3
-21.2
-19.3
-16.8
-14.6
-14.5
-17.6
-22.7
-26.8
-27.9
-26.5
-24.4
-22.7
-21.8
-21.0
-20.6
-21.2
-23.5
-26.9
-30.0
-32.4
-35.0
-38.8
-44.0
-50.4
-56.5
-61.3
-64.4
-66.3
-67.7
-68.8
-69.7
-70.6
-72.3
-75.0
-77.5
-77.6
-73.9
-67.2
-61.0
-57.9
-59.3
-64.3
-70.0
-73.6
-73.7
-71.4
-69.4
-71.1
-78.1
-87.4
-93.8
-93.8
-88.4
-80.6
-73.1
-66.9
-62.5
-62.4
-68.1
-79.3
-93.5
-107.6
-118.7
-125.2
-126.8
-124.0
-117.1
-105.0
-85.9
-58.8
-23.5
20.9
73.7
131.4
188.2
238.6
280.6
314.6
342.3
363.8
378.4
385.4
383.5
373.3
356.3
335.6
313.1
289.6
264.6
236.9
205.8
172.2
140.2
115.1
100.0
92.7
88.7
85.7
84.5
86.0
88.8
89.1
84.8
75.8
65.0
55.7
48.6
41.4
32.7
22.3
11.1
0.2
-8.6
-14.2
-17.3
-20.4
-26.2
-34.9
-45.4
-56.5
-67.1
-77.0
-85.7
-93.0
-99.3
-105.0
-110.4
-115.3
-120.2
-125.7
-131.0
-133.8
-133.0
-128.3
-121.0
-112.2
-103.4
-96.0
-90.2
-86.0
-84.3
-86.2
-93.2
-103.6
-112.8
-116.5
-113.7
-105.9
-97.1
-90.1
-85.3
-81.5
-78.1
-75.5
-74.4
-74.7
-75.5
-76.5
-77.9
-79.8
-82.5
-84.6
-84.8
-82.9
-79.8
-77.0
-75.9
-77.2
-80.9
-85.6
-88.7
-88.2
-84.2
-79.5
-77.5
-77.9
-78.3
-76.2
-73.1
-70.5
-68.3
-65.0
-60.7
-56.6
-54.5
-55.5
-61.0
-68.6
-74.2
-74.8
-70.3
-62.9
-55.1
-50.3
-50.3
-53.7
-56.3
-55.9
-52.7
-48.9
-46.1
-45.4
-46.4
-47.8
-48.9
-50.4
-53.1
-55.5
-56.0
-54.1
-51.3
-49.5
-49.3
-49.3
-47.2
-41.2
-32.5
-23.4
-15.7
-10.4
-7.8
-8.1
-10.8
-14.2
-16.8
-18.2
-17.8
-14.3
-8.3
-1.7
3.1
6.1
8.1
11.2
15.6
20.1
23.5
25.5
27.4
30.4
34.7
39.5
43.7
47.9
53.7
60.8
67.4
72.0
74.5
74.2
70.9
65.7
60.5
56.8
54.6
52.9
50.3
45.9
40.0
32.2
23.5
15.4
8.6
2.8
-2.8
-8.6
-14.0
-19.5
-26.2
-33.6
-40.5
-47.2
-54.8
-62.1
-65.7
-63.0
-55.9
-48.2
-43.7
-43.1
-44.4
-45.8
-47.0
-48.6
-51.0
-53.7
-56.0
-58.5
-61.9
-66.6
-71.7
-76.2
-79.7
-82.5
-84.6
-86.0
-87.1
-88.5
-90.1
-90.4
-89.3
-88.1
-87.9
-88.8
-89.5
-88.5
-86.2
-83.2
-80.9
-79.7
-79.3
-79.8
-80.9
-82.6
-85.4
-91.8
-101.6
-111.2
-115.1
-111.4
-102.4
-91.6
-82.5
-76.4
-72.7
-69.4
-65.7
-62.1
-59.7
-59.0
-60.1
-62.5
-66.3
-70.6
-74.5
-77.3
-79.3
-82.0
-86.3
-91.5
-94.9
-93.8
-88.2
-80.3
-73.3
-69.1
-67.7
-68.0
-68.3
-67.2
-64.9
-61.8
-58.7
-56.6
-56.3
-58.5
-63.3
-70.8
-78.9
-85.3
-88.4
-88.8
-87.6
-84.9
-81.2
-77.5
-74.1
-72.0
-71.6
-71.3
-68.5
-62.5
-55.7
-51.0
-49.6
-50.3
-51.2
-52.0
-52.3
-52.7
-53.7
-55.9
-60.8
-69.4
-79.8
-87.9
-88.5
-81.4
-70.0
-59.9
-53.8
-51.3
-50.4
-49.9
-50.1
-51.5
-55.7
-62.9
-71.3
-77.2
-79.7
-80.1
-79.0
-76.2
-71.1
-65.5
-62.1
-61.9
-63.9
-65.8
-65.7
-62.7
-57.9
-53.2
-50.7
-50.4
-50.9
-51.2
-51.8
-52.9
-53.7
-53.8
-53.5
-53.1
-51.8
-50.3
-48.6
-45.9
-40.5
-32.1
-23.0
-16.2
-13.4
-14.5
-18.5
-23.7
-27.7
-30.5
-33.0
-36.0
-39.5
-44.0
-49.5
-53.4
-53.8
-50.9
-46.1
-41.2
-38.3
-38.0
-39.8
-43.1
-47.2
-52.1
-57.9
-63.3
-67.4
-69.4
-70.8
-73.0
-75.6
-76.9
-75.3
-71.6
-68.3
-67.5
-68.9
-70.8
-73.1
-76.1
-78.9
-80.3
-78.9
-74.5
-68.6
-63.0
-59.7
-59.4
-61.5
-64.7
-67.7
-70.2
-72.0
-74.1
-76.1
-77.0
-77.6
-80.1
-87.0
-99.7
-116.4
-132.4
-144.0
-150.3
-151.5
-148.6
-141.4
-127.9
-105.2
-72.0
-31.1
13.9
60.4
107.3
153.4
196.6
234.7
266.9
292.9
313.4
329.7
342.5
350.6
351.7
346.2
335.5
321.0
302.4
279.7
253.5
225.4
196.6
168.8
143.0
120.4
101.9
87.3
75.0
64.9
57.3
53.2
52.3
52.7
53.2
51.7
46.4
36.6
23.7
10.1
-2.0
-11.2
-17.0
-19.6
-19.8
-20.1
-22.7
-28.6
-37.7
-49.0
-60.2
-68.9
-74.7
-79.3
-84.9
-91.3
-96.5
-99.3
-99.7
-99.1
-98.9
-100.0
-102.8
-107.3
-112.8
-118.2
-121.5
-122.0
-121.3
-122.6
-125.4
-125.5
-119.9
-110.1
-100.2
-92.7
-87.6
-83.9
-81.5
-81.8
-84.5
-87.6
-89.8
-90.5
-90.5
-90.4
-90.7
-92.3
-94.7
-97.2
-98.0
-96.0
-91.8
-86.5
-81.5
-77.9
-76.4
-77.0
-80.1
-84.9
-89.3
-90.9
-89.0
-84.6
-79.3
-74.4
-70.3
-67.8
-66.0
-64.9
-64.4
-65.0
-67.7
-73.0
-80.4
-87.0
-88.5
-84.0
-76.2
-68.9
-63.3
-58.0
-52.1
-46.7
-43.1
-41.6
-41.6
-42.8
-44.7
-47.3
-50.3
-52.4
-53.2
-53.7
-54.0
-53.1
-49.9
-46.1
-43.6
-43.7
-45.1
-45.6
-43.7
-40.0
-36.0
-32.8
-31.3
-30.4
-29.4
-27.7
-25.4
-22.7
-20.1
-17.6
-15.1
-12.0
-9.4
-7.8
-7.6
-9.0
-10.9
-11.8
-11.4
-9.4
-5.9
-1.6
2.5
7.8
16.4
28.6
42.2
53.4
59.7
61.5
61.1
61.1
62.7
65.2
67.4
68.3
67.5
64.9
59.9
52.7
44.8
38.4
36.0
37.7
40.3
40.6
37.8
33.0
27.6
21.0
13.2
4.2
-4.5
-11.4
-16.4
-20.7
-25.5
-30.4
-34.7
-39.5
-45.8
-54.1
-64.1
-74.1
-81.7
-85.7
-85.7
-82.1
-77.2
-73.7
-73.6
-75.9
-77.9
-77.3
-73.9
-69.2
-66.3
-66.4
-69.7
-74.8
-80.6
-86.2
-90.7
-93.3
-93.8
-92.6
-91.5
-92.7
-97.7
-104.7
-109.8
-110.1
-105.0
-96.6
-88.1
-82.1
-80.1
-81.8
-85.6
-89.8
-92.9
-94.9
-96.6
-97.1
-95.8
-93.5
-91.8
-91.8
-93.2
-95.2
-98.2
-102.2
-106.9
-110.4
-111.5
-109.5
-104.4
-96.6
-87.6
-78.4
-70.9
-66.7
-67.1
-70.5
-74.4
-76.4
-76.1
-74.4
-73.0
-73.1
-75.5
-79.2
-83.5
-87.4
-89.6
-89.6
-88.4
-88.4
-90.5
-92.6
-91.9
-88.4
-83.7
-79.2
-74.2
-68.0
-61.3
-56.3
-54.5
-55.9
-59.1
-62.9
-65.8
-67.4
-68.3
-69.5
-71.4
-73.3
-74.4
-74.7
-73.9
-72.5
-70.8
-69.5
-69.4
-70.8
-73.0
-75.1
-76.1
-75.5
-73.6
-71.3
-69.5
-68.9
-69.7
-71.1
-72.5
-73.3
-73.1
-72.2
-71.3
-70.8
-71.1
-72.0
-72.7
-72.7
-71.6
-69.5
-67.4
-66.3
-66.7
-68.6
-70.6
-71.9
-71.9
-71.1
-69.7
-68.5
-67.8
-69.5
-74.2
-81.1
-87.7
-90.5
-87.4
-79.3
-69.2
-60.8
-56.5
-55.9
-57.1
-57.7
-55.7
-51.2
-45.9
-42.0
-40.0
-38.4
-35.5
-30.4
-24.3
-19.2
-16.7
-18.1
-24.0
-32.8
-40.6
-44.0
-42.3
-37.8
-32.4
-27.6
-25.7
-29.0
-37.8
-49.8
-59.7
-63.8
-62.5
-59.6
-58.3
-59.9
-63.3
-67.5
-72.0
-77.0
-82.5
-87.1
-89.1
-87.7
-83.9
-79.8
-77.5
-76.4
-75.1
-73.9
-73.6
-74.8
-77.3
-80.4
-83.9
-87.3
-89.3
-89.8
-89.3
-88.8
-88.4
-87.3
-84.3
-79.3
-74.1
-71.6
-73.7
-80.1
-88.2
-96.5
-105.3
-115.7
-128.5
-142.0
-153.1
-158.7
-157.6
-150.9
-139.5
-122.6
-98.3
-65.3
-24.4
22.1
71.7
121.2
167.5
208.1
242.3
270.3
293.8
314.0
330.0
339.7
338.9
325.1
300.2
271.7
247.0
228.5
212.5
194.1
171.1
144.0
114.0
82.8
54.3
33.8
24.0
24.1
30.8
39.2
45.4
47.8
46.2
41.7
35.2
27.9
20.1
12.0
3.0
-6.7
-16.0
-23.7
-28.8
-32.1
-34.4
-35.8
-37.0
-40.3
-47.3
-56.6
-65.3
-71.6
-75.5
-77.9
-81.2
-86.7
-94.9
-104.4
-112.8
-118.8
-122.9
-125.5
-126.2
-124.0
-119.5
-113.7
-106.6
-98.6
-91.9
-89.1
-91.3
-95.5
-98.2
-97.4
-93.8
-89.0
-84.6
-81.1
-78.3
-76.2
-76.2
-78.9
-83.5
-88.4
-91.5
-92.4
-91.3
-88.5
-85.1
-81.8
-79.0
-76.7
-75.6
-75.6
-76.1
-76.1
-75.5
-75.0
-75.5
-77.2
-80.1
-82.9
-84.2
-82.6
-78.9
-74.5
-70.3
-66.6
-63.3
-60.4
-58.0
-55.7
-52.7
-49.8
-48.1
-49.2
-52.7
-56.9
-60.4
-62.4
-63.2
-62.1
-59.6
-57.6
-56.6
-55.5
-54.5
-55.4
-59.1
-62.5
-61.3
-54.9
-46.5
-40.2
-37.0
-35.8
-34.2
-31.4
-27.9
-24.6
-22.6
-22.6
-23.8
-25.2
-26.6
-28.3
-29.0
-26.5
-21.2
-15.6
-11.7
-10.0
-10.4
-12.0
-13.1
-12.3
-8.6
-2.5
4.2
10.0
13.6
15.1
15.0
14.8
17.8
24.8
33.9
42.2
48.4
52.9
56.0
58.0
59.3
60.4
62.2
65.7
70.0
74.1
75.6
74.4
72.3
71.7
73.4
74.8
73.9
69.9
64.4
58.8
53.8
48.7
42.8
35.5
26.8
16.2
3.1
-11.7
-26.2
-37.0
-41.9
-40.8
-36.7
-33.5
-33.0
-35.0
-38.1
-40.9
-43.6
-46.4
-50.6
-57.1
-66.0
-75.6
-82.6
-84.5
-80.1
-71.6
-62.9
-57.6
-58.5
-65.7
-76.4
-86.7
-92.6
-93.2
-90.1
-85.1
-80.0
-75.8
-72.7
-70.9
-70.9
-71.7
-72.3
-72.5
-72.8
-74.1
-76.4
-79.2
-82.1
-85.1
-88.4
-92.1
-95.8
-99.1
-101.7
-103.9
-104.4
-101.6
-96.0
-89.3
-83.4
-80.6
-82.5
-89.0
-97.4
-102.4
-100.5
-92.7
-82.5
-73.4
-67.5
-65.7
-66.6
-68.6
-70.3
-71.6
-73.7
-77.8
-83.2
-88.2
-91.2
-91.6
-90.5
-89.3
-88.8
-87.6
-83.7
-77.8
-73.3
-72.3
-73.0
-72.5
-70.2
-67.2
-65.5
-65.7
-67.4
-70.0
-72.3
-73.3
-73.6
-74.1
-74.2
-73.1
-70.9
-68.8
-67.7
-67.7
-67.7
-66.6
-65.3
-65.7
-69.1
-74.8
-80.6
-84.5
-85.4
-83.2
-78.3
-72.2
-66.4
-62.4
-60.5
-60.5
-62.2
-65.5
-69.9
-74.8
-79.2
-81.1
-79.7
-75.3
-69.5
-64.3
-60.5
-59.0
-59.3
-61.3
-65.3
-72.3
-81.8
-90.7
-94.0
-88.7
-77.6
-66.0
-57.6
-53.4
-52.0
-51.3
-50.6
-49.5
-49.0
-49.0
-48.9
-48.7
-49.5
-50.7
-50.7
-48.1
-43.7
-40.2
-39.4
-42.0
-47.0
-51.8
-53.7
-51.7
-47.3
-42.2
-37.0
-31.9
-28.2
-26.8
-28.0
-30.7
-33.2
-35.2
-37.7
-42.3
-49.2
-56.0
-61.1
-64.3
-67.5
-71.3
-74.5
-76.2
-77.3
-78.9
-81.4
-83.5
-83.7
-82.0
-80.6
-82.5
-88.1
-94.9
-99.7
-99.9
-94.1
-84.3
-74.2
-66.4
-61.3
-58.5
-57.4
-57.9
-59.4
-61.9
-64.9
-67.1
-68.0
-68.6
-69.9
-72.7
-78.1
-86.7
-97.7
-108.6
-117.9
-126.2
-134.6
-143.7
-152.1
-158.3
-160.8
-156.5
-143.0
-119.3
-87.4
-49.9
-8.0
37.4
84.5
132.1
179.0
224.3
265.8
301.0
327.9
345.8
354.8
356.3
353.8
350.6
347.3
340.9
327.6
305.8
277.3
245.0
211.7
180.3
152.0
125.7
101.0
79.7
64.7
57.4
56.3
59.0
62.4
64.4
63.5
59.4
52.7
44.0
34.4
24.3
14.3
4.7
-4.8
-13.6
-21.0
-27.1
-32.5
-38.0
-43.7
-50.3
-59.1
-71.3
-84.3
-94.4
-100.2
-102.5
-103.0
-102.8
-102.4
-102.2
-103.1
-106.2
-111.8
-118.4
-124.6
-129.0
-130.4
-127.9
-121.8
-114.8
-110.0
-109.2
-111.2
-114.0
-116.0
-115.7
-112.5
-106.9
-101.6
-98.5
-98.2
-99.3
-99.9
-98.9
-96.1
-92.4
-88.7
-86.2
-85.6
-87.3
-91.6
-98.0
-104.1
-106.7
-104.5
-99.4
-94.1
-90.7
-89.1
-89.0
-88.1
-84.8
-79.8
-75.1
-72.8
-73.3
-75.5
-77.5
-77.2
-73.4
-67.8
-63.0
-61.3
-62.2
-63.9
-65.3
-65.8
-66.3
-67.4
-69.9
-73.0
-75.5
-76.2
-75.6
-74.5
-73.9
-73.3
-71.1
-66.6
-60.8
-56.8
-56.2
-58.3
-61.0
-61.5
-59.4
-56.5
-54.6
-54.6
-55.2
-55.1
-54.5
-54.5
-54.6
-53.1
-49.6
-45.1
-40.9
-37.7
-35.2
-33.0
-30.5
-27.4
-23.7
-20.7
-19.2
-17.9
-15.1
-10.4
-4.7
0.2
3.1
3.9
3.3
1.9
-0.6
-3.1
-3.3
0.5
8.0
16.7
25.1
31.9
36.1
37.4
37.2
37.0
37.0
38.0
40.6
45.0
49.9
53.4
54.0
51.2
45.4
38.8
33.6
30.8
28.8
26.0
20.7
12.8
3.9
-3.4
-8.4
-12.2
-17.0
-23.4
-30.2
-35.8
-39.5
-41.6
-42.5
-44.0
-47.0
-50.7
-53.8
-57.1
-62.2
-69.5
-76.1
-78.6
-76.4
-72.0
-69.2
-69.9
-73.9
-79.3
-83.9
-85.9
-84.9
-82.8
-81.2
-81.8
-84.3
-87.3
-89.5
-90.1
-89.6
-89.5
-91.2
-94.7
-98.0
-98.8
-96.9
-94.3
-92.1
-89.9
-87.1
-84.3
-83.7
-86.3
-90.7
-94.0
-94.7
-93.7
-91.2
-88.2
-85.7
-84.8
-84.6
-84.9
-85.3
-85.6
-86.0
-87.0
-87.7
-87.9
-87.4
-86.8
-86.5
-86.5
-86.5
-87.0
-87.4
-87.4
-86.8
-86.0
-85.4
-84.3
-82.1
-79.3
-76.9
-75.9
-77.3
-80.9
-84.9
-87.9
-90.9
-96.3
-102.2
-103.8
-98.3
-89.6
-82.3
-77.0
-71.7
-65.0
-58.5
-53.7
-52.1
-54.6
-61.1
-69.9
-77.3
-80.9
-80.3
-77.2
-73.4
-70.6
-70.3
-72.7
-76.5
-79.3
-79.2
-76.5
-72.8
-69.9
-68.6
-68.1
-67.1
-64.9
-62.1
-59.6
-58.0
-57.6
-57.9
-59.1
-61.8
-66.6
-73.4
-79.0
-80.9
-77.9
-72.0
-66.4
-64.3
-66.4
-71.7
-76.2
-77.0
-73.4
-67.2
-61.0
-56.8
-54.6
-53.8
-54.0
-54.9
-56.6
-58.7
-61.0
-63.9
-67.4
-69.7
-70.8
-70.8
-69.7
-66.7
-61.8
-56.5
-53.1
-52.4
-53.1
-53.4
-52.0
-49.2
-46.2
-43.9
-42.0
-39.7
-36.4
-32.8
-29.4
-26.6
-24.6
-23.0
-22.3
-22.6
-24.1
-26.5
-29.7
-33.3
-36.3
-37.5
-37.0
-36.6
-36.6
-36.7
-36.3
-35.6
-36.3
-38.8
-43.7
-51.8
-61.5
-69.4
-72.8
-72.2
-69.7
-68.1
-70.0
-75.9
-82.1
-84.3
-80.9
-74.4
-67.7
-63.6
-63.2
-66.3
-71.1
-75.5
-79.2
-83.4
-87.3
-88.1
-83.7
-75.1
-66.4
-60.5
-57.9
-57.4
-57.7
-57.9
-57.4
-56.3
-55.5
-56.5
-60.5
-68.8
-81.5
-97.9
-116.5
-136.1
-153.5
-164.6
-167.4
-162.7
-151.8
-133.2
-106.1
-71.9
-31.4
14.5
65.5
118.5
170.0
216.2
254.9
286.5
313.9
338.0
357.6
370.3
375.5
373.6
366.0
353.2
336.1
314.5
289.6
262.5
234.9
207.3
181.4
157.7
137.8
121.5
108.7
98.6
90.2
82.9
77.0
72.7
69.4
66.9
64.4
61.0
56.2
48.6
37.8
24.6
10.6
-2.5
-12.9
-19.5
-22.6
-25.1
-31.8
-44.5
-60.7
-74.4
-82.1
-85.4
-87.6
-90.5
-94.0
-97.2
-100.3
-103.4
-106.4
-108.3
-108.1
-107.2
-106.4
-106.7
-108.6
-112.0
-116.7
-121.2
-124.1
-123.8
-120.2
-115.3
-111.2
-108.7
-107.2
-105.0
-101.9
-98.6
-96.9
-97.5
-100.0
-103.0
-105.2
-105.9
-104.8
-102.4
-99.6
-96.1
-91.8
-87.1
-83.5
-81.5
-81.1
-81.4
-82.1
-82.9
-84.2
-86.5
-89.3
-91.6
-91.6
-89.3
-86.7
-85.4
-84.8
-84.0
-83.4
-83.1
-81.8
-78.1
-72.2
-66.4
-62.5
-61.6
-62.9
-65.8
-69.7
-72.8
-73.1
-70.6
-68.3
-69.2
-73.1
-76.7
-76.5
-72.2
-65.7
-59.4
-55.4
-54.5
-56.8
-60.5
-63.6
-64.1
-62.1
-58.0
-53.2
-49.0
-45.4
-42.3
-39.8
-38.8
-40.0
-42.2
-43.3
-43.7
-44.4
-45.0
-44.4
-42.6
-40.8
-38.4
-34.1
-26.5
-16.5
-7.8
-2.7
-1.1
-1.1
-0.6
1.4
5.6
10.1
13.6
15.1
15.6
16.2
17.3
17.6
16.7
16.2
19.0
25.5
33.2
39.1
42.2
43.7
45.0
47.2
51.2
56.6
62.4
66.4
67.4
64.4
57.6
47.9
38.1
30.8
26.8
24.4
21.2
15.1
7.5
1.3
-1.9
-4.4
-9.2
-17.3
-25.7
-31.9
-35.8
-39.4
-44.5
-50.9
-57.1
-61.0
-62.4
-62.7
-63.6
-65.7
-67.8
-69.4
-70.2
-70.9
-72.0
-73.4
-74.8
-75.8
-76.4
-78.1
-82.6
-89.1
-95.1
-98.3
-98.6
-96.1
-91.2
-84.8
-78.3
-72.7
-67.8
-64.6
-63.8
-66.7
-73.1
-79.8
-83.4
-82.9
-79.5
-76.1
-74.7
-76.1
-79.3
-82.6
-85.3
-86.8
-87.0
-85.7
-83.7
-82.8
-85.6
-93.7
-104.5
-112.8
-113.6
-105.8
-93.0
-80.1
-70.8
-66.3
-64.7
-64.9
-66.3
-68.9
-71.7
-74.4
-77.3
-81.8
-87.0
-90.2
-89.3
-83.2
-73.9
-64.9
-59.4
-58.8
-62.1
-67.2
-71.9
-74.4
-74.4
-72.3
-70.0
-68.9
-70.2
-72.3
-73.0
-70.8
-67.1
-63.6
-61.9
-63.9
-70.2
-77.5
-80.6
-77.3
-70.0
-62.9
-58.7
-56.8
-55.9
-54.8
-54.6
-56.0
-59.0
-62.5
-65.7
-67.4
-67.8
-67.7
-67.5
-66.9
-65.8
-66.0
-67.8
-69.9
-70.2
-68.6
-66.3
-64.9
-64.9
-65.8
-65.8
-62.9
-57.4
-51.7
-47.8
-46.7
-48.4
-52.0
-55.9
-58.0
-57.9
-56.0
-54.1
-53.7
-54.9
-57.3
-60.7
-64.7
-68.9
-72.8
-76.5
-80.0
-82.1
-81.1
-75.5
-66.0
-55.1
-45.3
-38.4
-35.6
-37.0
-41.6
-47.5
-52.6
-56.0
-57.9
-59.4
-61.0
-61.3
-59.0
-53.1
-44.0
-33.0
-21.6
-11.7
-5.5
-3.6
-5.6
-9.7
-14.0
-18.5
-23.2
-27.6
-30.7
-32.4
-33.2
-33.6
-34.4
-35.3
-36.3
-36.7
-37.5
-39.2
-42.6
-48.1
-54.9
-61.3
-65.7
-67.5
-67.7
-67.4
-66.9
-66.9
-68.0
-70.3
-73.4
-76.5
-79.3
-82.5
-86.5
-91.0
-94.1
-94.9
-93.0
-88.5
-81.7
-74.4
-67.7
-62.2
-58.7
-58.2
-61.8
-68.5
-76.5
-82.0
-81.5
-75.1
-67.5
-62.7
-62.1
-64.6
-69.4
-76.7
-87.4
-101.1
-116.0
-130.5
-143.3
-152.7
-156.0
-148.9
-129.0
-97.2
-56.9
-12.2
34.4
81.8
129.7
177.3
222.7
263.6
298.0
325.2
344.7
355.9
359.4
357.1
351.2
342.2
330.4
315.4
296.9
273.9
245.8
213.6
180.3
149.5
124.0
105.8
94.4
87.6
83.4
80.7
78.9
77.2
74.5
70.2
64.4
58.0
51.3
43.0
30.7
14.8
-0.8
-11.2
-14.2
-12.3
-10.0
-9.8
-12.5
-18.4
-27.2
-38.1
-50.1
-62.5
-75.1
-86.8
-96.8
-104.8
-110.3
-112.8
-112.9
-111.5
-109.4
-107.2
-105.8
-105.9
-107.5
-110.1
-113.4
-116.0
-117.0
-117.1
-118.7
-122.7
-127.9
-130.8
-127.7
-117.9
-104.7
-92.3
-82.9
-77.2
-75.0
-76.2
-80.4
-86.0
-91.2
-94.3
-94.3
-91.5
-86.7
-81.8
-78.4
-76.7
-76.1
-76.5
-77.6
-78.4
-78.6
-78.3
-77.8
-77.0
-76.1
-74.8
-73.6
-72.8
-73.0
-74.1
-75.9
-78.6
-81.1
-82.0
-81.8
-81.7
-81.7
-81.2
-79.3
-76.2
-73.1
-71.4
-71.4
-72.2
-72.0
-70.3
-68.5
-67.4
-67.8
-69.1
-70.5
-71.9
-73.0
-72.3
-68.0
-59.6
-49.8
-41.7
-36.6
-33.8
-32.7
-32.8
-33.9
-34.9
-34.6
-33.2
-30.8
-28.5
-27.2
-27.2
-27.7
-28.6
-30.4
-32.1
-31.8
-28.2
-22.1
-15.7
-10.9
-7.8
-5.8
-4.2
-3.0
-2.0
-1.1
0.6
3.4
6.6
8.9
9.8
9.8
9.8
10.4
12.5
16.2
21.6
29.0
38.0
47.0
53.5
56.3
56.5
56.3
57.7
59.7
60.7
59.3
55.4
50.4
46.4
44.4
42.5
38.4
31.3
23.5
17.8
14.8
13.2
12.2
10.9
8.7
5.0
-1.4
-10.4
-21.6
-34.2
-47.0
-57.9
-64.7
-67.1
-66.1
-64.1
-62.4
-61.1
-60.2
-59.9
-61.1
-65.0
-71.7
-79.3
-84.8
-86.3
-84.9
-82.6
-80.6
-78.6
-76.5
-74.7
-73.9
-75.6
-81.1
-89.3
-96.6
-99.1
-96.8
-93.5
-94.1
-98.8
-103.0
-102.7
-98.0
-91.9
-87.3
-84.3
-82.5
-81.4
-81.4
-82.6
-84.9
-86.8
-87.7
-87.4
-86.7
-86.2
-87.1
-90.2
-95.4
-101.0
-104.5
-104.8
-103.0
-100.0
-96.1
-90.5
-83.9
-77.3
-72.3
-70.2
-70.9
-73.6
-76.5
-78.4
-79.2
-78.7
-77.6
-76.1
-74.8
-74.8
-76.4
-79.2
-81.7
-83.1
-83.5
-83.1
-82.9
-84.6
-89.0
-93.8
-96.0
-93.8
-89.1
-83.7
-77.8
-71.6
-65.7
-62.1
-62.5
-66.6
-72.0
-76.7
-79.2
-79.2
-77.3
-75.0
-74.1
-74.5
-75.3
-76.4
-77.9
-78.1
-74.7
-67.5
-59.0
-52.3
-49.5
-49.8
-51.5
-53.2
-54.5
-55.7
-58.0
-61.8
-66.4
-69.9
-70.5
-68.1
-64.4
-60.8
-59.0
-61.0
-67.1
-74.4
-78.9
-79.2
-76.9
-74.5
-73.4
-73.3
-73.4
-73.7
-73.4
-72.0
-70.0
-68.9
-69.5
-70.2
-68.9
-66.4
-64.3
-63.6
-65.2
-68.1
-71.1
-72.7
-72.3
-70.6
-68.5
-67.7
-69.4
-71.7
-70.8
-64.6
-54.1
-42.3
-31.8
-24.0
-19.9
-17.9
-16.5
-15.3
-14.8
-15.9
-18.8
-23.0
-27.2
-30.4
-31.8
-31.8
-31.1
-31.4
-34.4
-39.5
-45.1
-48.9
-51.2
-53.8
-56.2
-57.3
-56.6
-55.7
-56.6
-60.7
-66.7
-71.9
-73.9
-73.3
-72.5
-73.4
-75.6
-77.8
-79.5
-80.6
-81.7
-83.7
-86.3
-87.7
-86.8
-84.6
-82.6
-81.7
-81.2
-80.1
-78.4
-76.5
-74.4
-71.9
-69.1
-66.7
-64.7
-62.5
-60.2
-58.2
-57.6
-59.1
-63.6
-71.6
-81.7
-92.6
-104.2
-117.8
-134.4
-152.3
-166.4
-172.7
-169.4
-157.7
-137.5
-107.2
-66.3
-17.3
35.0
87.0
135.6
180.3
220.6
255.7
284.5
306.4
322.9
335.5
344.5
349.8
350.6
344.8
331.3
310.0
282.3
250.9
217.8
184.6
154.5
130.0
111.8
99.1
89.9
83.2
77.8
72.7
67.4
61.6
55.4
49.6
43.9
37.8
31.6
24.8
16.5
5.6
-8.1
-22.7
-34.2
-40.0
-41.1
-39.5
-37.2
-34.7
-34.1
-36.4
-42.2
-50.7
-60.8
-71.6
-82.0
-93.0
-105.6
-118.5
-127.1
-127.6
-121.6
-113.7
-107.6
-104.5
-105.2
-110.1
-119.0
-126.9
-129.3
-124.4
-115.0
-105.2
-97.1
-91.3
-87.4
-84.9
-83.2
-82.9
-84.6
-88.1
-92.7
-98.6
-105.0
-109.8
-110.4
-106.4
-99.3
-92.3
-87.9
-87.0
-88.2
-89.3
-89.1
-88.1
-87.0
-87.0
-89.0
-91.3
-91.5
-87.9
-82.3
-77.5
-74.1
-71.7
-69.9
-69.1
-69.4
-69.5
-68.5
-66.1
-63.5
-61.6
-61.3
-63.6
-68.5
-74.7
-79.3
-79.8
-75.3
-67.2
-59.4
-55.5
-56.8
-61.3
-65.2
-66.4
-64.7
-61.9
-59.9
-59.4
-59.6
-60.4
-62.2
-64.9
-66.4
-65.3
-60.5
-52.1
-42.2
-33.3
-28.3
-28.8
-33.8
-39.7
-42.0
-38.8
-32.2
-25.7
-21.8
-20.6
-20.4
-20.7
-20.2
-18.2
-14.0
-8.7
-3.8
-0.2
1.9
3.8
5.9
7.5
7.3
5.9
5.5
7.6
12.3
17.9
22.9
26.9
30.8
34.6
37.7
39.4
39.7
39.7
41.7
46.5
52.6
58.0
61.9
64.4
64.4
61.9
57.9
53.5
49.8
46.1
41.2
34.9
26.9
18.5
11.7
8.1
7.5
8.3
8.0
5.0
-0.3
-8.1
-17.1
-26.3
-34.9
-41.7
-46.5
-49.5
-52.1
-55.7
-61.3
-68.5
-74.8
-78.6
-79.5
-80.0
-82.6
-86.8
-89.1
-87.7
-83.5
-78.9
-74.7
-72.0
-70.8
-71.3
-72.8
-75.6
-80.4
-87.3
-93.7
-96.6
-94.7
-90.7
-89.6
-94.3
-102.2
-107.8
-107.3
-101.9
-94.7
-89.0
-85.6
-83.9
-82.8
-81.8
-80.9
-80.1
-79.3
-79.3
-80.6
-83.7
-88.5
-94.0
-98.5
-100.5
-100.2
-97.9
-93.8
-88.7
-83.5
-80.6
-81.2
-84.5
-87.7
-89.0
-88.4
-87.4
-87.3
-87.4
-86.5
-83.7
-79.8
-76.2
-73.6
-71.7
-70.5
-69.9
-70.9
-74.1
-80.0
-87.6
-94.6
-98.8
-99.7
-98.2
-94.3
-87.9
-80.0
-71.6
-63.8
-57.3
-52.6
-50.3
-50.6
-53.4
-57.4
-61.5
-65.3
-68.5
-70.6
-71.3
-70.9
-70.9
-72.8
-76.4
-80.3
-82.8
-82.5
-78.7
-73.3
-68.1
-65.7
-66.3
-68.9
-71.9
-73.4
-72.7
-70.2
-67.7
-66.9
-68.9
-72.2
-74.8
-75.1
-73.1
-68.9
-63.6
-59.3
-58.5
-63.6
-74.8
-86.5
-91.5
-86.7
-75.3
-63.9
-57.6
-55.9
-54.9
-52.7
-50.3
-49.0
-49.2
-49.5
-49.8
-50.3
-51.7
-53.7
-56.3
-59.0
-60.8
-61.3
-59.7
-57.1
-54.9
-53.7
-53.1
-52.4
-51.5
-50.4
-50.3
-51.5
-54.6
-58.3
-60.8
-61.3
-59.1
-53.4
-44.4
-34.1
-25.2
-20.1
-18.8
-20.7
-24.8
-29.4
-33.8
-36.9
-37.2
-35.2
-34.2
-38.6
-47.8
-56.9
-61.8
-59.7
-51.8
-41.4
-33.2
-29.4
-30.8
-36.7
-45.9
-55.5
-62.9
-66.4
-67.2
-67.2
-67.2
-67.4
-67.1
-66.3
-64.7
-63.0
-61.6
-61.8
-63.3
-65.7
-68.1
-70.2
-71.7
-73.4
-76.4
-80.6
-84.0
-84.5
-82.0
-78.3
-74.4
-70.5
-66.9
-64.7
-65.2
-69.7
-76.9
-82.9
-85.9
-89.3
-97.2
-108.9
-121.2
-132.8
-143.0
-148.7
-147.3
-138.4
-124.0
-105.2
-82.0
-54.5
-22.0
15.9
59.7
108.6
159.0
207.0
249.2
283.2
309.2
328.0
341.2
349.6
352.4
348.7
338.4
321.8
299.4
272.5
242.2
208.9
172.8
134.1
95.2
61.0
37.2
25.7
23.5
26.0
29.7
33.2
35.6
36.9
37.4
36.1
32.1
24.0
12.8
1.1
-8.0
-13.6
-16.0
-16.4
-15.0
-12.2
-8.1
-4.4
-2.8
-4.5
-9.7
-18.4
-30.0
-43.4
-57.4
-71.1
-84.6
-96.3
-104.1
-106.9
-105.9
-103.1
-100.0
-97.1
-94.0
-90.5
-88.5
-89.1
-92.1
-95.7
-98.9
-102.8
-108.6
-114.5
-116.7
-112.6
-103.8
-94.4
-87.9
-84.6
-84.0
-86.0
-89.5
-90.7
-86.5
-77.8
-68.6
-63.0
-62.1
-64.3
-66.9
-69.1
-71.3
-74.5
-78.7
-81.8
-82.8
-81.1
-77.5
-73.1
-68.9
-66.0
-65.2
-67.4
-72.3
-78.4
-83.1
-83.9
-81.5
-78.1
-75.1
-72.7
-70.0
-66.1
-61.3
-57.1
-54.8
-54.3
-54.3
-53.5
-51.8
-50.9
-52.3
-56.0
-60.8
-63.6
-62.9
-59.1
-54.1
-48.1
-40.8
-33.3
-27.9
-25.7
-26.3
-27.7
-29.0
-29.7
-31.0
-32.2
-32.8
-32.5
-31.3
-29.4
-26.9
-24.9
-23.5
-22.9
-23.0
-24.1
-25.4
-25.7
-25.4
-25.2
-25.1
-23.5
-19.6
-13.7
-6.6
1.6
10.9
20.4
28.3
32.8
33.5
30.7
26.6
23.7
24.1
28.2
32.7
35.2
35.3
35.2
37.2
41.6
47.0
52.1
57.4
63.6
70.8
76.9
80.6
81.5
80.1
77.8
74.7
70.8
65.7
59.6
53.1
46.2
39.5
33.2
27.4
21.6
14.6
5.9
-4.4
-15.1
-25.1
-33.3
-39.2
-42.5
-44.0
-44.8
-46.4
-49.9
-55.7
-62.4
-67.4
-68.1
-65.0
-59.6
-54.3
-51.0
-49.5
-48.7
-48.2
-48.4
-49.5
-51.7
-55.5
-61.8
-70.8
-81.4
-90.1
-94.1
-92.9
-87.6
-80.3
-73.1
-68.5
-66.9
-67.8
-69.7
-72.3
-75.8
-79.7
-83.2
-85.6
-87.3
-88.5
-89.1
-88.5
-87.3
-87.4
-89.5
-93.0
-96.3
-98.2
-98.8
-98.5
-96.6
-93.0
-88.4
-84.5
-83.1
-84.8
-87.7
-88.4
-84.6
-77.9
-72.7
-71.4
-74.2
-77.8
-79.3
-78.6
-76.7
-74.2
-71.3
-68.5
-66.9
-68.0
-71.9
-76.4
-79.2
-79.5
-77.6
-73.7
-68.6
-64.1
-61.8
-62.4
-65.8
-70.8
-75.0
-76.5
-75.0
-71.7
-68.8
-67.8
-69.7
-74.2
-80.4
-85.6
-87.4
-84.9
-80.0
-75.5
-72.7
-70.3
-66.6
-61.1
-55.2
-50.1
-47.3
-48.1
-52.3
-58.2
-63.0
-65.2
-66.1
-68.3
-72.8
-78.4
-82.5
-83.7
-82.1
-78.6
-73.6
-68.5
-64.3
-61.1
-59.6
-59.6
-61.0
-63.0
-64.7
-66.0
-67.4
-69.4
-72.3
-75.8
-78.7
-80.4
-80.7
-80.3
-80.4
-81.1
-79.7
-74.7
-66.9
-59.4
-54.5
-51.7
-49.3
-46.8
-45.0
-45.4
-47.5
-49.0
-48.2
-46.4
-44.4
-42.5
-39.4
-35.5
-31.9
-30.4
-32.2
-37.5
-44.5
-49.3
-48.4
-42.2
-34.4
-28.5
-25.7
-25.4
-26.9
-29.7
-34.1
-40.8
-48.9
-56.3
-60.7
-62.1
-61.8
-61.1
-61.3
-62.1
-62.9
-64.4
-67.8
-72.8
-76.4
-76.7
-74.4
-71.9
-70.6
-70.8
-71.7
-73.3
-75.9
-80.1
-84.3
-86.5
-85.9
-83.5
-81.7
-81.1
-81.8
-82.5
-82.1
-80.9
-79.5
-78.9
-79.5
-82.0
-85.7
-90.1
-93.8
-95.2
-94.9
-96.3
-103.6
-117.0
-132.8
-146.7
-155.2
-156.5
-150.3
-137.8
-119.6
-95.2
-64.6
-27.9
13.2
58.0
104.8
152.7
200.0
243.0
278.7
306.7
329.4
348.6
363.9
374.7
379.2
376.5
366.1
347.9
322.9
293.8
263.5
233.3
202.8
172.5
143.3
117.0
94.1
75.8
61.9
52.0
45.1
42.0
42.6
45.9
48.7
48.1
42.3
32.4
21.8
13.9
9.2
5.5
-0.5
-9.4
-19.2
-27.1
-31.0
-30.8
-30.0
-32.4
-39.2
-49.2
-59.4
-68.1
-75.3
-81.2
-87.0
-94.0
-102.2
-109.7
-114.0
-115.6
-115.9
-115.7
-115.0
-113.9
-113.4
-114.2
-114.8
-113.2
-109.7
-105.5
-103.0
-103.1
-105.0
-106.4
-105.8
-104.5
-104.2
-105.3
-106.7
-107.5
-107.8
-107.6
-105.8
-101.3
-95.5
-90.5
-87.3
-84.2
-81.1
-79.3
-79.7
-81.7
-83.9
-84.9
-84.6
-83.2
-80.4
-77.0
-73.7
-73.0
-77.2
-85.7
-94.6
-99.1
-97.9
-92.6
-85.4
-77.6
-70.3
-64.1
-59.7
-57.6
-57.6
-58.5
-58.8
-58.2
-57.3
-57.1
-58.3
-61.0
-64.9
-68.6
-70.5
-69.2
-65.3
-61.1
-59.4
-61.6
-66.1
-69.9
-69.7
-65.3
-59.4
-54.9
-53.7
-55.7
-58.2
-58.2
-54.6
-48.1
-40.0
-32.1
-26.0
-24.0
-25.8
-30.0
-34.1
-36.3
-35.3
-30.8
-24.0
-16.5
-10.6
-7.8
-8.1
-9.0
-7.3
-2.0
5.3
11.4
14.6
15.4
15.3
15.3
16.0
17.9
20.7
23.7
25.5
25.8
25.1
25.1
27.1
31.6
37.5
43.1
45.9
44.5
40.0
34.7
29.7
25.8
25.5
30.8
40.5
50.4
56.0
54.3
45.8
34.9
26.2
22.7
23.7
25.7
25.7
21.5
12.8
0.5
-12.5
-23.0
-29.9
-33.2
-35.2
-37.5
-40.9
-44.7
-48.1
-51.3
-54.9
-58.5
-61.8
-64.3
-66.4
-68.3
-70.5
-72.5
-73.7
-73.7
-73.1
-73.0
-73.4
-73.6
-73.1
-72.3
-72.2
-72.3
-73.1
-74.2
-76.4
-80.0
-84.2
-87.4
-88.4
-86.7
-83.1
-79.0
-75.8
-74.8
-78.4
-86.5
-96.0
-102.2
-101.9
-96.0
-87.7
-80.6
-75.8
-73.3
-72.3
-71.7
-70.6
-69.5
-69.4
-70.2
-70.8
-70.8
-70.3
-69.7
-69.1
-68.5
-69.4
-72.0
-75.1
-77.5
-78.1
-77.8
-77.0
-76.1
-74.8
-72.8
-70.0
-67.2
-65.8
-66.6
-69.2
-72.5
-73.6
-71.1
-65.7
-60.2
-57.3
-57.6
-59.6
-61.9
-63.6
-64.1
-63.6
-62.2
-61.6
-62.5
-65.0
-68.3
-71.4
-75.3
-81.8
-89.5
-93.8
-90.9
-81.2
-68.9
-58.0
-50.1
-44.5
-41.2
-40.9
-44.2
-51.0
-59.7
-67.8
-72.0
-70.2
-63.0
-54.3
-47.5
-43.4
-41.6
-41.1
-42.0
-43.7
-45.8
-47.8
-49.5
-51.5
-54.0
-56.6
-59.6
-62.9
-65.8
-67.7
-68.9
-70.9
-73.7
-74.8
-71.4
-63.9
-55.1
-48.1
-43.9
-42.0
-41.7
-42.6
-45.1
-51.0
-59.4
-66.3
-67.5
-62.9
-55.9
-49.3
-44.4
-40.5
-36.9
-33.8
-31.4
-31.1
-34.1
-40.0
-46.2
-49.5
-49.2
-47.5
-45.9
-44.0
-40.0
-33.5
-25.7
-19.0
-14.0
-10.6
-8.0
-5.8
-4.5
-4.8
-7.5
-12.8
-19.9
-27.6
-34.2
-38.1
-38.9
-37.0
-35.3
-36.1
-40.0
-44.0
-45.0
-41.6
-36.1
-31.9
-30.8
-33.9
-41.6
-52.6
-64.6
-73.6
-76.4
-72.7
-66.1
-60.8
-58.5
-57.7
-57.3
-57.1
-58.0
-59.1
-59.9
-59.7
-59.9
-61.0
-63.6
-66.9
-69.2
-69.4
-68.0
-66.7
-67.4
-69.4
-70.5
-69.2
-65.8
-62.1
-59.6
-59.3
-62.5
-71.6
-87.4
-109.0
-131.9
-150.3
-160.1
-160.4
-153.1
-139.4
-119.3
-93.0
-60.5
-22.7
19.5
65.5
113.7
162.5
209.8
252.4
288.5
318.8
345.0
367.1
383.4
393.7
397.4
393.7
381.4
361.3
336.6
310.6
284.5
257.6
229.4
200.0
170.2
141.6
117.0
98.5
87.4
82.6
81.2
79.7
75.5
68.8
61.1
53.7
47.0
42.2
39.5
36.9
31.1
20.6
6.2
-8.6
-20.7
-27.6
-29.6
-29.1
-29.9
-34.2
-43.6
-57.9
-74.2
-88.2
-96.0
-97.4
-96.8
-98.5
-103.6
-110.0
-114.6
-116.7
-116.7
-115.3
-112.6
-108.4
-104.1
-101.4
-101.3
-102.8
-104.8
-106.2
-106.4
-105.6
-104.2
-102.5
-100.5
-98.0
-95.4
-92.7
-90.5
-89.5
-90.7
-93.7
-96.3
-96.8
-94.4
-89.9
-85.4
-83.1
-84.5
-89.0
-94.6
-98.9
-100.3
-98.3
-93.5
-87.0
-79.8
-73.6
-69.4
-66.9
-66.0
-66.0
-66.7
-69.1
-73.6
-80.0
-86.0
-89.3
-89.5
-87.1
-83.1
-77.2
-69.7
-61.6
-54.8
-50.4
-48.7
-49.0
-51.2
-54.9
-60.2
-65.2
-67.5
-66.6
-64.1
-63.2
-64.6
-66.4
-66.0
-62.2
-56.9
-53.1
-52.4
-55.4
-59.6
-62.5
-64.1
-64.9
-63.3
-57.6
-47.6
-36.9
-28.6
-24.8
-24.8
-26.6
-28.6
-30.2
-30.7
-29.7
-27.6
-25.2
-24.8
-27.4
-32.4
-37.0
-37.2
-30.0
-17.1
-3.3
7.2
13.2
16.2
18.1
20.6
23.5
26.0
27.1
26.8
26.0
26.8
30.0
35.8
42.8
49.5
54.3
56.0
55.1
53.4
51.5
48.4
42.5
34.6
28.5
27.6
31.3
37.0
41.7
43.9
43.6
41.7
38.6
33.8
26.0
15.1
2.8
-8.6
-18.5
-27.7
-35.8
-41.6
-43.4
-42.3
-41.4
-42.6
-45.9
-49.8
-52.6
-54.0
-54.8
-56.2
-58.5
-61.9
-66.3
-70.6
-73.4
-73.3
-71.1
-69.1
-68.6
-70.3
-73.1
-75.9
-78.1
-79.3
-79.8
-80.7
-83.1
-87.9
-94.6
-100.8
-103.9
-101.7
-95.7
-89.0
-83.7
-80.4
-78.1
-77.0
-77.5
-78.7
-80.0
-80.4
-81.4
-84.0
-88.8
-95.1
-100.3
-102.8
-102.4
-100.6
-98.8
-97.1
-95.4
-92.7
-88.7
-84.0
-80.6
-80.3
-83.1
-86.5
-88.4
-88.1
-85.9
-82.5
-77.8
-72.3
-66.9
-62.1
-59.1
-59.3
-62.5
-68.3
-74.2
-78.4
-79.5
-77.9
-75.5
-73.9
-73.4
-74.1
-75.5
-76.7
-77.6
-78.3
-78.6
-77.3
-74.2
-70.8
-68.6
-68.1
-68.3
-68.6
-68.8
-68.6
-67.8
-67.4
-67.5
-67.8
-66.9
-66.0
-67.4
-72.7
-80.1
-85.9
-87.0
-84.0
-79.7
-76.2
-73.6
-70.5
-66.7
-63.5
-61.9
-62.1
-63.8
-66.9
-70.0
-70.5
-67.4
-62.4
-58.3
-56.8
-56.2
-54.5
-51.3
-48.9
-48.9
-51.5
-55.5
-59.9
-62.7
-63.3
-61.5
-58.5
-55.5
-53.5
-53.1
-54.1
-57.4
-62.7
-69.1
-74.2
-75.8
-73.7
-70.2
-67.5
-66.7
-66.6
-65.7
-62.4
-56.8
-50.6
-45.8
-43.6
-43.4
-44.0
-44.7
-44.5
-43.7
-42.6
-40.9
-38.4
-34.9
-31.6
-30.4
-30.7
-31.4
-31.3
-28.8
-23.8
-17.4
-12.5
-11.4
-14.0
-18.5
-22.9
-25.5
-25.7
-24.8
-25.2
-28.5
-33.9
-39.1
-42.2
-43.6
-44.5
-46.1
-48.7
-52.6
-57.6
-64.1
-72.8
-82.1
-88.2
-87.4
-80.6
-72.0
-65.8
-62.7
-61.8
-61.1
-60.4
-60.2
-61.6
-65.0
-70.2
-75.3
-78.9
-79.2
-75.6
-70.2
-65.5
-63.3
-63.6
-66.3
-69.9
-72.0
-71.4
-67.7
-63.0
-61.0
-63.9
-71.9
-83.1
-96.5
-111.5
-126.9
-140.2
-149.2
-152.6
-149.9
-140.3
-123.7
-100.2
-70.8
-34.9
8.3
57.6
108.7
159.0
206.7
250.6
287.9
316.8
338.4
355.2
368.6
377.2
378.3
370.9
355.7
334.2
308.3
279.3
248.9
218.4
188.7
160.1
133.2
110.0
92.4
79.8
71.1
65.2
61.8
60.7
61.1
61.8
60.2
55.7
49.2
42.3
35.5
27.4
17.0
4.5
-7.8
-18.1
-24.8
-28.8
-31.9
-36.0
-43.3
-55.1
-69.2
-81.2
-87.4
-89.0
-89.9
-93.0
-97.5
-101.4
-104.1
-105.5
-106.2
-106.9
-108.1
-111.1
-114.8
-117.0
-117.0
-116.0
-116.2
-117.4
-119.0
-119.9
-119.2
-116.4
-112.8
-109.7
-107.3
-104.5
-100.5
-96.1
-92.3
-89.9
-89.8
-92.1
-96.9
-102.0
-104.5
-102.8
-98.8
-96.3
-96.6
-98.0
-97.1
-92.6
-86.0
-79.8
-74.4
-69.7
-66.0
-63.9
-64.3
-66.3
-68.8
-72.0
-76.9
-83.1
-88.2
-89.1
-85.7
-80.4
-75.8
-72.8
-71.7
-72.0
-72.2
-71.7
-71.6
-72.5
-73.6
-74.2
-74.8
-75.6
-75.8
-73.6
-68.8
-62.7
-57.9
-56.0
-56.5
-58.0
-58.8
-58.3
-57.1
-56.8
-58.3
-61.1
-63.3
-63.6
-61.5
-57.1
-51.3
-45.9
-41.9
-38.8
-34.7
-29.4
-23.7
-18.4
-14.6
-12.9
-13.4
-15.3
-17.9
-21.0
-25.1
-29.0
-30.4
-26.6
-18.8
-10.4
-4.7
-2.2
-1.3
0.0
3.4
8.1
12.3
14.0
13.7
13.2
14.0
16.4
20.6
26.6
34.6
43.1
51.0
56.5
58.8
58.7
57.4
56.5
56.0
54.8
51.3
45.6
39.8
36.3
35.3
34.9
33.0
29.0
23.2
16.0
8.0
-1.0
-9.5
-16.0
-19.3
-19.9
-19.9
-20.6
-22.6
-25.7
-29.3
-32.5
-35.8
-39.5
-44.5
-51.8
-61.9
-72.8
-82.8
-90.9
-96.9
-99.6
-98.3
-94.3
-88.5
-81.8
-74.2
-66.7
-60.5
-56.5
-54.9
-56.2
-59.4
-63.9
-69.4
-75.8
-82.1
-87.9
-93.0
-97.2
-98.9
-97.2
-92.9
-87.6
-83.2
-80.6
-79.5
-80.0
-81.5
-83.1
-84.6
-86.5
-88.4
-89.8
-89.5
-88.1
-86.5
-85.3
-85.1
-85.4
-85.1
-84.2
-82.8
-81.5
-80.3
-78.9
-78.3
-79.5
-83.4
-88.5
-92.7
-95.7
-98.5
-101.0
-101.7
-100.0
-96.3
-91.8
-87.0
-82.8
-78.7
-74.1
-69.4
-66.0
-65.8
-69.4
-74.7
-78.3
-78.3
-75.6
-72.5
-70.9
-72.3
-76.1
-79.5
-80.0
-76.9
-72.8
-70.6
-70.5
-70.5
-69.2
-67.1
-64.7
-62.5
-60.4
-58.5
-57.4
-57.4
-58.8
-61.9
-65.8
-70.6
-76.5
-82.0
-85.1
-84.5
-80.7
-75.5
-70.8
-68.3
-67.1
-65.5
-62.7
-60.8
-62.5
-67.5
-72.5
-74.1
-71.9
-68.5
-65.7
-63.5
-62.4
-63.0
-64.7
-66.0
-66.0
-65.7
-65.5
-65.3
-64.6
-63.8
-64.4
-66.4
-67.8
-67.2
-64.6
-61.3
-58.8
-58.5
-60.5
-63.9
-67.5
-71.1
-74.7
-78.6
-82.0
-82.9
-79.8
-73.3
-65.7
-58.5
-51.7
-45.8
-41.6
-40.8
-43.7
-48.7
-52.7
-54.0
-53.4
-52.4
-51.5
-49.5
-45.6
-40.2
-35.0
-32.1
-31.0
-30.5
-29.6
-28.2
-26.8
-26.0
-25.7
-25.5
-25.7
-26.2
-27.4
-29.4
-32.4
-36.3
-41.6
-48.4
-56.3
-63.2
-67.5
-70.2
-71.9
-72.7
-71.7
-70.3
-70.0
-72.7
-79.8
-90.2
-99.7
-103.9
-101.6
-94.7
-85.9
-77.8
-72.5
-70.8
-71.7
-73.0
-73.0
-72.0
-70.8
-70.9
-73.3
-76.7
-79.0
-79.0
-78.1
-77.8
-77.9
-77.9
-77.5
-77.2
-76.9
-76.2
-75.3
-75.8
-79.8
-89.6
-104.7
-122.7
-140.5
-154.3
-161.5
-160.8
-152.4
-136.7
-114.3
-87.0
-55.9
-21.5
16.8
60.2
107.6
156.8
204.1
247.0
282.8
310.4
331.3
347.3
359.0
365.3
364.9
356.3
339.5
315.4
286.3
254.3
221.0
187.7
156.0
127.4
103.0
82.3
64.7
50.4
40.8
36.7
36.7
38.1
38.1
35.8
31.4
26.3
21.8
17.8
13.7
8.9
3.1
-3.6
-10.8
-17.8
-24.1
-29.7
-33.8
-36.1
-37.4
-39.7
-44.8
-54.1
-66.9
-80.3
-91.0
-98.3
-103.1
-106.7
-110.3
-115.3
-121.5
-126.3
-126.5
-121.5
-113.9
-106.4
-100.8
-98.3
-98.8
-100.3
-100.5
-98.0
-93.5
-88.8
-86.7
-89.3
-96.6
-105.6
-111.8
-112.2
-107.3
-99.9
-93.0
-88.1
-84.9
-82.8
-81.7
-81.2
-80.7
-80.3
-80.3
-81.1
-81.7
-80.4
-77.8
-75.8
-76.1
-77.8
-78.6
-78.1
-77.0
-76.2
-75.6
-75.1
-75.6
-78.3
-82.5
-84.9
-82.9
-76.5
-68.5
-62.5
-60.8
-62.7
-65.0
-65.7
-64.9
-64.7
-66.0
-67.2
-66.6
-63.8
-60.7
-59.1
-59.6
-61.5
-64.4
-67.7
-69.5
-67.7
-61.9
-53.8
-45.6
-39.4
-36.3
-37.0
-40.8
-45.8
-49.8
-52.0
-52.3
-51.0
-47.0
-40.5
-33.5
-28.5
-26.2
-26.5
-28.8
-30.2
-27.6
-21.0
-13.4
-7.5
-3.9
-2.4
-1.4
0.0
3.4
7.6
11.2
13.7
15.4
16.7
17.4
17.8
19.2
22.1
25.4
27.6
29.0
30.4
31.3
31.6
33.2
38.1
45.8
54.1
60.8
65.0
66.9
66.9
65.5
62.1
56.9
51.5
48.1
46.2
43.3
37.8
29.9
20.2
10.8
3.4
-0.3
-2.5
-5.0
-8.4
-12.2
-15.4
-17.9
-20.1
-23.4
-28.2
-33.9
-40.2
-46.7
-53.5
-60.1
-64.4
-66.1
-66.3
-65.8
-65.3
-64.4
-63.6
-63.9
-65.8
-68.0
-69.5
-70.9
-72.8
-76.5
-81.8
-87.3
-90.5
-92.1
-94.7
-98.9
-102.8
-103.4
-100.0
-94.3
-88.7
-84.6
-81.4
-77.9
-74.5
-72.2
-71.6
-72.5
-75.5
-80.7
-88.2
-95.1
-98.2
-96.5
-91.8
-87.3
-84.8
-84.2
-83.7
-83.1
-83.5
-85.7
-88.4
-90.4
-91.9
-94.4
-97.7
-100.5
-100.2
-96.0
-89.5
-82.8
-78.3
-77.3
-78.9
-80.0
-78.9
-76.7
-75.8
-76.7
-77.5
-76.5
-75.6
-77.6
-83.5
-91.2
-95.8
-94.6
-87.1
-76.4
-66.0
-58.2
-53.2
-50.7
-50.6
-53.7
-60.1
-68.5
-75.8
-80.1
-80.7
-78.4
-75.1
-72.2
-70.9
-72.0
-75.6
-79.2
-79.8
-76.7
-71.6
-67.1
-65.2
-66.0
-67.8
-69.4
-69.5
-68.3
-66.9
-66.9
-68.6
-71.9
-75.5
-78.1
-79.2
-79.7
-79.7
-78.6
-75.6
-70.9
-66.3
-62.5
-60.1
-58.0
-56.8
-56.8
-57.1
-56.6
-55.1
-53.7
-52.7
-53.1
-53.8
-54.6
-55.2
-56.2
-58.3
-62.4
-68.3
-75.1
-80.7
-82.5
-78.1
-68.6
-57.3
-47.8
-43.3
-44.4
-48.9
-52.7
-53.7
-52.1
-50.3
-50.3
-51.3
-51.7
-49.5
-45.4
-40.9
-36.1
-31.1
-27.1
-25.4
-27.1
-32.1
-39.1
-45.6
-48.4
-45.6
-38.8
-31.1
-26.6
-27.6
-33.3
-41.1
-47.0
-49.0
-47.6
-44.8
-42.5
-41.4
-41.6
-43.4
-47.5
-53.7
-61.1
-67.8
-72.5
-74.8
-75.8
-75.8
-75.5
-74.5
-72.8
-70.2
-67.7
-66.1
-66.6
-68.9
-72.2
-75.5
-78.9
-83.5
-88.7
-91.5
-89.6
-83.9
-76.4
-69.1
-62.9
-57.1
-52.6
-50.4
-52.3
-59.3
-69.2
-78.9
-86.2
-93.2
-103.0
-116.0
-130.2
-142.3
-151.3
-157.7
-161.5
-159.4
-147.5
-123.2
-87.1
-42.2
7.6
58.8
109.0
157.6
203.6
245.3
280.6
309.2
332.1
349.8
361.9
367.2
364.9
356.5
344.0
326.8
301.9
266.9
225.1
183.4
147.8
119.9
99.1
84.0
74.4
68.8
65.3
63.3
62.7
63.2
62.7
58.7
49.3
36.3
23.0
12.6
5.5
0.3
-3.9
-8.0
-11.7
-15.0
-19.0
-24.8
-32.2
-38.9
-43.0
-44.7
-46.7
-52.3
-62.9
-76.2
-87.9
-94.6
-96.0
-95.1
-95.7
-99.9
-105.6
-109.2
-108.4
-105.0
-102.5
-102.2
-102.4
-100.8
-98.2
-96.1
-97.1
-101.6
-108.3
-114.3
-117.3
-116.0
-110.9
-103.8
-97.5
-94.9
-95.2
-96.3
-96.5
-95.2
-92.6
-89.6
-88.8
-91.6
-96.1
-99.3
-99.6
-97.4
-93.8
-90.4
-88.4
-87.6
-86.3
-84.6
-84.2
-86.8
-91.8
-96.5
-98.5
-96.5
-91.6
-86.2
-82.8
-81.8
-80.1
-75.0
-67.2
-59.9
-55.9
-55.2
-57.1
-60.2
-63.9
-67.4
-70.6
-74.1
-78.1
-81.8
-83.5
-82.0
-77.2
-70.6
-64.1
-59.0
-56.5
-56.3
-57.9
-60.4
-62.9
-64.3
-63.9
-62.1
-59.9
-59.3
-61.5
-66.6
-72.5
-76.1
-75.6
-70.9
-63.0
-53.2
-43.1
-34.2
-27.1
-21.8
-18.1
-16.0
-17.0
-22.4
-31.0
-38.0
-39.2
-34.7
-26.8
-17.8
-9.0
-1.9
3.0
5.8
7.8
10.0
12.3
13.9
15.1
17.0
19.2
22.0
24.9
28.2
31.1
34.1
38.0
43.4
49.9
56.6
61.6
63.9
63.5
61.0
57.1
52.7
48.1
43.0
36.3
28.0
18.8
10.1
3.4
0.0
0.3
3.1
5.8
5.0
-1.1
-11.5
-22.4
-30.8
-35.5
-36.6
-35.2
-33.2
-32.5
-34.9
-40.9
-50.4
-61.0
-69.9
-75.0
-77.6
-80.0
-82.6
-84.9
-86.8
-88.1
-88.5
-87.1
-83.7
-79.3
-76.1
-75.0
-75.9
-77.9
-80.6
-83.7
-87.0
-90.4
-94.6
-101.1
-109.4
-116.5
-118.7
-114.6
-106.2
-96.9
-89.0
-83.4
-80.9
-81.4
-85.4
-92.6
-99.7
-103.3
-102.4
-99.1
-96.3
-95.1
-94.4
-94.0
-93.2
-91.8
-89.6
-87.6
-86.8
-87.3
-88.8
-90.9
-93.5
-96.1
-97.7
-96.8
-93.8
-90.5
-89.0
-89.0
-89.5
-88.7
-87.0
-85.6
-86.0
-88.5
-91.6
-93.7
-93.8
-91.9
-88.4
-85.3
-84.8
-87.9
-92.6
-95.7
-95.2
-91.2
-85.7
-81.7
-80.4
-82.3
-87.7
-95.2
-99.3
-95.8
-86.5
-75.5
-65.7
-58.3
-54.0
-53.2
-55.5
-60.1
-64.6
-68.1
-70.5
-73.0
-77.0
-81.7
-85.6
-87.9
-89.3
-91.0
-92.7
-93.3
-91.5
-87.7
-84.0
-80.9
-77.9
-75.1
-73.0
-70.9
-69.2
-69.2
-72.5
-79.7
-88.5
-94.7
-94.7
-88.8
-80.4
-72.7
-66.7
-63.6
-63.2
-64.7
-67.2
-69.5
-71.1
-72.5
-74.5
-77.5
-79.2
-76.7
-69.2
-59.6
-50.7
-44.4
-40.6
-39.1
-39.8
-42.3
-45.9
-49.5
-52.6
-54.8
-55.1
-53.8
-51.7
-49.2
-46.4
-43.6
-42.2
-43.3
-46.1
-47.5
-45.8
-41.7
-38.1
-36.9
-38.9
-42.5
-43.9
-41.2
-35.8
-30.0
-26.5
-26.2
-28.5
-33.2
-39.5
-47.6
-57.9
-69.5
-78.3
-81.5
-80.1
-77.9
-77.6
-80.0
-83.4
-84.6
-81.5
-75.6
-70.6
-68.6
-68.8
-68.9
-68.3
-67.8
-68.6
-70.6
-73.3
-75.6
-78.1
-81.7
-86.0
-88.2
-85.6
-78.4
-70.9
-65.8
-63.5
-62.9
-63.2
-63.6
-65.2
-68.3
-74.1
-82.5
-93.5
-107.6
-124.1
-140.6
-153.2
-158.8
-156.6
-149.2
-138.1
-122.6
-99.1
-66.0
-24.4
23.0
74.1
125.5
174.5
218.5
256.9
288.8
313.7
331.4
343.4
351.3
355.1
352.6
342.0
322.1
295.5
267.2
241.2
218.7
197.9
176.1
151.5
126.3
104.4
89.3
80.7
75.6
70.6
64.3
56.9
50.4
45.4
40.8
34.9
28.3
22.3
17.0
10.6
2.4
-7.6
-17.0
-23.2
-26.0
-26.9
-28.2
-31.3
-37.4
-47.8
-62.2
-77.8
-89.9
-96.0
-97.2
-96.5
-96.5
-99.3
-105.9
-115.3
-124.1
-129.0
-128.2
-123.2
-116.5
-110.1
-105.3
-103.3
-104.2
-106.2
-106.4
-103.6
-98.3
-92.6
-87.6
-84.5
-83.7
-85.3
-87.9
-89.1
-89.0
-88.7
-89.3
-90.9
-92.6
-93.2
-92.3
-89.8
-86.8
-84.8
-84.6
-87.0
-90.1
-91.5
-89.6
-84.8
-78.3
-71.7
-67.2
-65.3
-65.5
-65.7
-65.0
-63.3
-61.6
-60.7
-61.0
-63.3
-69.2
-79.0
-89.6
-95.7
-93.8
-86.0
-76.4
-67.8
-61.8
-59.4
-60.1
-61.3
-60.7
-58.7
-56.2
-54.0
-52.1
-51.2
-51.7
-52.9
-54.1
-54.1
-53.1
-51.3
-50.1
-49.6
-49.6
-49.8
-49.3
-47.8
-45.6
-43.9
-43.1
-43.1
-42.3
-40.3
-37.7
-35.3
-33.3
-32.5
-33.3
-35.2
-36.1
-34.2
-29.1
-21.6
-14.0
-8.1
-4.8
-4.2
-5.5
-7.3
-8.9
-8.4
-4.4
1.7
8.4
13.9
17.4
18.8
19.2
19.3
21.5
26.2
31.9
37.5
42.6
48.4
54.3
59.6
63.5
65.8
66.7
66.3
64.4
61.5
57.3
52.9
48.6
44.2
39.5
35.0
30.5
24.6
16.8
8.1
0.5
-4.7
-6.9
-6.7
-5.3
-5.0
-7.3
-12.8
-21.0
-30.8
-41.2
-50.9
-57.7
-60.7
-61.6
-64.1
-70.9
-80.4
-87.1
-87.3
-81.1
-72.3
-64.9
-59.9
-57.3
-56.6
-57.7
-60.2
-62.7
-64.1
-64.1
-63.6
-64.4
-67.8
-73.7
-80.9
-87.3
-91.8
-93.5
-92.9
-90.7
-87.7
-84.6
-82.1
-80.4
-79.5
-79.2
-78.9
-78.6
-78.4
-79.7
-82.5
-84.9
-85.1
-82.8
-80.1
-79.8
-82.8
-88.2
-94.0
-97.9
-98.6
-95.5
-89.3
-82.6
-78.3
-77.2
-78.1
-80.1
-82.5
-83.4
-81.1
-75.6
-69.4
-64.4
-61.8
-61.8
-64.3
-68.6
-73.9
-79.7
-85.3
-91.2
