-44.5
-44.5
-44.4
-44.5
-44.7
-44.7
-44.7
-44.7
-44.5
-44.4
-44.0
-43.9
-43.9
-43.7
-43.1
-42.2
-41.1
-39.8
-38.8
-37.7
-36.6
-35.5
-34.7
-33.9
-33.0
-31.9
-30.8
-29.9
-28.8
-27.7
-26.6
-25.4
-24.3
-23.5
-23.4
-23.2
-22.3
-20.2
-17.3
-14.2
-10.8
-7.2
-3.6
-0.3
2.5
4.8
6.9
8.3
8.7
8.3
6.7
4.1
0.6
-3.6
-8.7
-14.5
-20.4
-25.5
-29.7
-33.0
-35.3
-36.9
-38.3
-39.7
-41.1
-42.6
-44.0
-45.3
-46.5
-48.1
-49.9
-51.7
-53.1
-54.1
-54.8
-55.1
-55.2
-55.4
-55.9
-56.6
-57.4
-58.2
-58.8
-59.1
-58.5
-56.6
-53.7
-49.6
-44.5
-37.7
-27.6
-13.6
4.5
27.7
55.9
88.2
121.5
151.7
175.9
192.3
197.9
189.3
163.8
122.6
70.3
13.7
-41.6
-92.3
-135.6
-170.5
-196.3
-214.2
-225.1
-229.6
-228.6
-223.4
-214.6
-203.8
-191.3
-178.1
-163.9
-149.0
-133.5
-118.4
-104.5
-92.6
-82.8
-75.0
-69.4
-65.5
-62.9
-61.1
-60.4
-60.2
-60.1
-59.9
-59.6
-59.3
-59.0
-58.5
-58.2
-57.7
-57.1
-56.3
-55.4
-54.3
-53.2
-52.3
-52.1
-52.7
-53.5
-54.0
-54.0
-53.4
-53.1
-52.7
-52.7
-52.7
-53.1
-53.4
-53.5
-53.5
-53.7
-53.7
-53.4
-52.7
-51.8
-50.7
-49.6
-48.6
-47.9
-47.9
-48.2
-48.6
-48.2
-47.8
-47.2
-46.7
-46.4
-46.2
-46.2
-46.4
-46.7
-46.7
-46.4
-45.6
-44.8
-44.0
-43.7
-43.7
-44.0
-44.7
-45.3
-45.6
-45.3
-44.5
-43.1
-41.9
-40.5
-39.4
-38.6
-38.1
-37.8
-37.8
-38.0
-37.8
-37.5
-37.0
-36.7
-36.4
-36.0
-35.5
-34.9
-34.4
-34.1
-34.1
-34.4
-34.2
-33.6
-32.1
-30.4
-28.8
-27.7
-26.9
-26.2
-25.4
-24.4
-23.2
-22.0
-20.4
-19.0
-17.9
-17.0
-16.2
-15.1
-13.9
-12.6
-12.2
-11.8
-11.7
-11.5
-11.1
-10.6
-9.8
-8.6
-7.0
-5.8
-4.7
-4.1
-3.6
-3.3
-3.3
-3.3
-3.0
-2.4
-2.0
-2.2
-3.0
-3.9
-5.0
-5.9
-6.4
-6.9
-7.3
-8.1
-8.7
-9.2
-10.0
-11.1
-12.5
-13.9
-15.0
-16.0
-17.3
-18.8
-20.4
-22.0
-23.4
-24.6
-25.7
-26.9
-28.5
-29.9
-31.1
-32.5
-33.9
-35.0
-36.0
-36.6
-37.4
-38.0
-38.4
-38.9
-39.2
-39.4
-39.5
-39.7
-39.7
-39.7
-39.8
-40.5
-41.4
-42.3
-43.1
-43.7
-44.4
-44.7
-45.0
-45.6
-46.5
-47.6
-48.4
-48.7
-48.2
-47.9
-48.1
-48.4
-48.7
-48.9
-49.0
-49.0
-48.7
-48.1
-47.3
-46.8
-46.8
-47.3
-47.9
-48.6
-49.2
-49.6
-50.1
-50.3
-50.4
-50.4
-50.4
-50.3
-49.9
-49.5
-48.7
-47.5
-45.8
-44.5
-43.9
-44.0
-44.5
-45.1
-45.8
-46.1
-46.2
-46.4
-46.7
-47.3
-47.9
-48.4
-48.6
-48.2
-47.8
-46.8
-46.2
-45.9
-46.1
-46.5
-47.0
-47.0
-46.5
-45.9
-45.6
-45.6
-45.8
-46.1
-46.2
-46.4
-46.5
-46.8
-47.3
-47.8
-47.9
-47.8
-47.5
-47.3
-47.2
-46.7
-46.1
-45.6
-45.3
-45.4
-45.9
-46.7
-47.5
-48.1
-47.8
-46.8
-45.4
-44.4
-43.6
-43.1
-42.6
-41.9
-40.9
-39.8
-39.1
-38.4
-38.6
-39.1
-39.7
-40.0
-39.7
-39.4
-39.1
-39.1
-39.4
-39.5
-39.5
-39.4
-38.8
-37.7
-36.6
-36.0
-36.0
-36.3
-37.0
-38.0
-38.8
-39.4
-39.8
-40.0
-39.8
-39.7
-39.5
-39.2
-38.8
-38.0
-37.2
-36.6
-36.1
-35.6
-35.6
-35.8
-36.4
-36.9
-37.4
-37.7
-38.0
-38.4
-39.1
-39.5
-40.2
-40.6
-40.6
-40.6
-40.3
-39.8
-39.2
-38.9
-38.4
-38.0
-37.7
-37.4
-37.0
-36.7
-36.4
-36.7
-37.4
-38.1
-38.8
-38.9
-39.1
-39.1
-38.9
-38.6
-38.1
-37.8
-37.4
-36.7
-36.3
-36.1
-36.3
-36.7
-37.0
-37.2
-37.2
-37.4
-37.5
-37.4
-36.9
-36.1
-35.2
-34.7
-34.4
-34.6
-34.9
-35.0
-34.7
-34.2
-33.2
-31.8
-30.2
-29.0
-28.3
-28.2
-28.3
-28.2
-27.9
-27.4
-27.2
-26.9
-26.3
-24.9
-23.0
-20.9
-19.0
-18.1
-17.8
-17.6
-17.3
-15.9
-13.4
-10.1
-6.4
-2.7
1.0
4.4
7.6
10.1
12.3
13.9
14.8
14.5
13.2
10.9
7.6
3.0
-2.4
-8.3
-14.0
-19.2
-23.7
-27.4
-30.4
-32.7
-34.4
-35.8
-37.2
-39.2
-41.7
-44.2
-46.4
-47.9
-48.7
-49.3
-49.8
-50.1
-50.1
-49.8
-49.6
-50.3
-51.2
-52.4
-53.4
-54.0
-54.3
-54.6
-54.5
-53.5
-51.2
-47.0
-40.8
-32.1
-20.7
-5.8
13.1
37.2
67.1
101.9
137.5
169.9
195.5
212.3
217.1
206.2
177.2
131.0
73.0
10.1
-51.0
-106.4
-153.1
-189.9
-216.7
-233.8
-243.0
-245.8
-243.6
-236.9
-226.9
-214.3
-200.5
-186.2
-171.9
-157.9
-144.0
-130.5
-117.6
-105.6
-95.1
-86.3
-79.7
-74.5
-70.6
-67.5
-65.2
-63.2
-61.8
-60.2
-58.8
-57.4
-56.0
-54.9
-54.1
-53.5
-53.4
-53.1
-52.6
-52.0
-51.0
-50.4
-49.8
-49.2
-48.2
-46.7
-45.3
-44.2
-43.7
-43.7
-43.7
-43.4
-43.3
-43.3
-44.0
-45.0
-46.1
-46.7
-47.0
-47.0
-46.8
-46.4
-45.9
-45.3
-44.7
-44.2
-44.0
-44.0
-43.9
-43.3
-42.6
-42.0
-41.7
-41.2
-40.6
-39.8
-39.4
-39.4
-39.7
-39.8
-39.7
-39.1
-38.4
-38.3
-38.6
-38.9
-39.1
-39.1
-38.9
-38.8
-38.6
-38.6
-38.6
-38.1
-37.4
-36.6
-35.6
-34.7
-33.6
-32.4
-31.1
-29.7
-28.3
-27.1
-26.0
-25.5
-25.8
-26.5
-26.9
-26.8
-26.5
-25.8
-24.9
-23.7
-22.4
-21.5
-20.6
-19.6
-18.5
-17.6
-16.8
-16.0
-14.8
-13.2
-11.7
-10.3
-8.9
-7.6
-6.2
-4.5
-2.8
-1.0
0.0
0.5
0.2
-0.2
-0.2
0.3
1.0
1.6
2.4
3.0
3.6
3.9
4.7
5.8
7.0
8.0
8.7
9.2
9.5
10.0
10.3
10.3
9.8
8.9
7.3
5.6
3.6
2.0
0.8
-0.5
-1.9
-3.4
-4.7
-5.9
-7.2
-8.9
-10.8
-12.9
-15.1
-17.0
-18.4
-19.5
-21.0
-22.9
-24.9
-26.6
-27.4
-27.7
-27.7
-28.2
-29.3
-31.1
-33.5
-35.8
-37.7
-38.9
-39.7
-40.0
-40.3
-40.5
-40.8
-40.9
-41.1
-41.4
-42.2
-43.0
-43.4
-43.1
-42.5
-41.9
-41.6
-41.6
-41.7
-42.2
-43.0
-43.9
-45.0
-45.8
-46.5
-47.2
-47.5
-47.6
-47.8
-47.6
-47.3
-47.2
-47.2
-47.2
-47.3
-47.6
-48.1
-48.2
-47.9
-47.2
-46.5
-46.1
-46.1
-46.2
-46.7
-47.5
-48.2
-48.7
-48.7
-48.6
-48.1
-47.8
-47.6
-47.5
-47.6
-47.6
-47.5
-47.2
-46.8
-46.5
-46.1
-45.6
-45.3
-45.4
-45.8
-45.8
-45.3
-44.5
-43.9
-43.6
-43.4
-43.6
-43.7
-43.9
-44.4
-45.0
-45.4
-45.4
-44.8
-43.9
-43.0
-42.5
-42.5
-42.6
-43.1
-43.4
-43.7
-44.4
-45.4
-46.4
-47.3
-48.1
-49.0
-49.8
-50.6
-50.9
-50.7
-50.1
-49.5
-48.9
-47.9
-47.0
-45.9
-45.0
-44.2
-43.4
-43.0
-42.6
-43.0
-44.0
-45.9
-47.8
-48.9
-49.3
-49.3
-49.2
-49.0
-48.6
-47.9
-47.2
-46.7
-46.5
-46.2
-45.8
-45.1
-45.0
-45.3
-45.6
-45.3
-44.8
-44.7
-45.3
-45.9
-46.1
-45.8
-45.8
-46.1
-46.1
-45.9
-45.6
-45.1
-44.7
-44.0
-43.7
-43.6
-43.7
-44.2
-44.8
-45.3
-45.4
-45.4
-45.1
-45.1
-45.1
-45.4
-45.6
-45.8
-45.4
-44.7
-43.6
-42.6
-41.7
-40.9
-40.3
-40.0
-39.8
-39.7
-39.8
-40.6
-41.6
-42.3
-42.6
-42.6
-42.3
-41.9
-41.4
-41.2
-41.6
-42.0
-42.3
-42.5
-42.3
-42.0
-41.7
-41.6
-41.2
-40.6
-39.8
-39.1
-38.6
-38.4
-38.1
-37.4
-36.6
-35.8
-35.3
-35.0
-34.7
-34.2
-33.8
-33.5
-33.3
-32.8
-31.8
-30.2
-28.6
-27.6
-26.9
-26.0
-24.0
-20.7
-16.8
-12.9
-8.9
-4.8
-1.1
1.6
3.9
5.6
7.3
8.7
9.4
9.0
8.3
6.6
4.1
0.5
-3.6
-8.6
-14.2
-19.8
-24.9
-28.6
-30.8
-31.9
-32.2
-32.5
-33.3
-35.3
-38.1
-41.1
-43.7
-45.8
-47.6
-49.3
-50.4
-51.3
-52.1
-52.9
-53.4
-53.4
-53.1
-52.7
-52.6
-52.1
-51.7
-51.0
-50.3
-48.7
-45.9
-41.7
-36.6
-30.5
-22.9
-12.2
2.4
22.0
47.2
78.3
112.6
146.1
174.4
194.9
205.5
202.7
183.1
145.9
94.3
34.7
-26.3
-83.9
-134.2
-175.5
-206.6
-227.6
-239.4
-243.4
-241.6
-235.2
-225.4
-213.2
-199.4
-184.9
-170.3
-155.4
-140.6
-126.6
-113.7
-102.4
-92.6
-84.5
-77.6
-72.0
-67.4
-63.6
-60.8
-59.0
-57.9
-57.1
-56.5
-55.7
-54.8
-53.8
-52.9
-52.3
-51.7
-51.3
-51.0
-50.7
-50.6
-50.1
-49.5
-48.6
-47.6
-47.0
-46.4
-45.8
-45.3
-45.3
-45.9
-46.5
-47.3
-47.6
-47.6
-47.5
-46.8
-46.2
-45.6
-45.0
-44.4
-43.6
-42.8
-42.3
-42.3
-42.2
-41.9
-41.1
-40.5
-40.3
-40.5
-40.8
-40.8
-40.5
-39.8
-39.5
-39.4
-39.7
-40.0
-40.5
-40.6
-40.2
-39.2
-38.0
-37.2
-36.9
-37.2
-37.4
-37.0
-36.1
-35.0
-34.4
-34.1
-33.9
-33.6
-33.3
-33.2
-33.2
-33.2
-32.8
-32.1
-31.0
-30.0
-29.6
-29.1
-28.5
-27.7
-26.6
-25.7
-24.9
-24.3
-23.7
-22.9
-22.1
-21.2
-20.2
-19.5
-18.7
-18.1
-17.6
-17.3
-16.4
-15.0
-13.2
-11.2
-9.2
-7.5
-6.1
-5.2
-4.5
-4.1
-3.6
-3.1
-2.5
-1.9
-1.3
-0.8
-0.5
-0.3
-0.2
0.0
1.0
2.0
2.8
3.4
3.8
3.6
3.0
1.9
0.6
-0.3
-0.8
-0.6
0.0
0.5
0.3
-0.3
-1.9
-3.8
-5.5
-7.0
-8.3
-9.8
-11.7
-13.6
-15.0
-16.0
-16.8
-17.6
-18.8
-20.7
-22.6
-24.4
-26.2
-27.7
-29.0
-30.2
-31.8
-33.3
-34.6
-35.2
-35.8
-37.0
-39.1
-40.9
-42.3
-43.4
-44.7
-46.1
-47.5
-48.2
-48.4
-48.1
-47.5
-47.3
-47.6
-48.1
-48.9
-49.9
-51.0
-52.3
-53.1
-53.2
-53.1
-52.7
-52.4
-52.0
-51.3
-51.2
-51.2
-51.3
-51.7
-52.0
-52.4
-53.2
-54.3
-55.1
-55.5
-55.7
-55.2
-54.0
-52.3
-50.7
-50.3
-50.4
-51.0
-51.3
-51.0
-50.4
-49.9
-49.8
-49.5
-49.2
-48.7
-48.4
-48.1
-47.9
-47.8
-47.2
-46.4
-45.9
-45.8
-45.8
-45.9
-46.4
-46.7
-46.7
-46.7
-46.8
-46.8
-46.2
-45.3
-43.9
-42.8
-41.7
-40.9
-40.8
-41.1
-41.2
-41.4
-41.7
-42.0
-42.3
-42.3
-42.2
-42.2
-42.2
-42.0
-42.0
-42.2
-42.3
-42.5
-42.5
-42.3
-42.3
-42.5
-42.8
-42.8
-42.5
-42.5
-42.8
-43.4
-44.0
-44.7
-44.8
-44.4
-43.4
-42.6
-42.2
-42.0
-42.2
-42.5
-42.5
-42.5
-42.8
-43.1
-43.4
-43.7
-44.2
-44.7
-45.3
-45.8
-45.9
-45.8
-45.3
-44.7
-44.4
-44.4
-44.7
-45.0
-45.1
-45.4
-45.4
-45.4
-45.0
-44.4
-43.9
-43.6
-43.6
-43.9
-44.2
-44.5
-44.5
-44.4
-44.5
-44.8
-45.0
-44.7
-43.9
-42.8
-41.9
-41.4
-41.7
-42.5
-43.4
-44.2
-44.7
-44.8
-44.7
-44.7
-45.3
-46.2
-47.5
-48.7
-49.5
-50.1
-50.3
-49.6
-48.9
-48.1
-47.5
-46.8
-45.9
-45.3
-44.7
-44.2
-43.7
-43.4
-43.1
-43.1
-43.4
-43.9
-44.5
-45.0
-45.3
-45.3
-45.0
-44.5
-44.0
-43.6
-43.4
-43.4
-43.6
-43.6
-43.6
-43.1
-42.8
-42.8
-42.8
-42.8
-42.2
-41.2
-40.2
-39.1
-38.1
-37.2
-36.4
-35.8
-35.2
-34.4
-33.5
-32.4
-31.3
-30.2
-29.1
-28.2
-27.4
-26.9
-26.3
-25.4
-23.8
-21.6
-19.0
-15.6
-11.5
-7.3
-3.3
0.0
2.7
4.5
5.5
5.8
5.8
4.8
3.1
0.2
-3.4
-8.0
-13.2
-18.7
-24.1
-29.1
-33.2
-35.8
-37.5
-38.9
-40.3
-41.6
-42.6
-44.2
-46.2
-48.4
-50.3
-51.8
-52.9
-53.8
-54.8
-55.9
-56.5
-56.3
-55.7
-54.8
-54.3
-54.8
-55.9
-57.3
-58.2
-58.0
-56.6
-53.8
-49.5
-43.3
-35.0
-24.1
-10.0
8.1
31.3
60.2
93.5
127.1
157.3
181.2
196.8
201.1
190.7
163.3
120.2
66.4
8.7
-47.2
-97.5
-140.3
-174.1
-198.6
-214.6
-223.2
-226.0
-224.0
-218.4
-210.0
-199.3
-187.3
-174.4
-161.0
-147.6
-133.9
-120.7
-108.7
-98.2
-89.5
-82.3
-76.5
-72.2
-68.9
-66.6
-64.9
-63.8
-63.0
-62.2
-61.5
-60.7
-59.9
-59.4
-59.1
-58.8
-58.7
-58.2
-57.9
-57.3
-56.8
-56.0
-55.4
-55.1
-55.2
-55.4
-55.1
-54.1
-53.2
-52.3
-51.7
-51.2
-50.9
-50.9
-51.0
-51.5
-51.3
-50.7
-49.6
-48.6
-47.8
-47.6
-47.8
-48.4
-48.7
-48.7
-48.6
-48.2
-47.8
-46.8
-45.6
-44.5
-43.9
-43.6
-43.6
-43.9
-44.2
-44.7
-44.7
-44.4
-43.7
-43.1
-42.5
-41.9
-41.7
-41.6
-41.4
-41.4
-41.6
-42.0
-42.5
-42.6
-42.5
-42.3
-42.2
-42.0
-41.4
-40.3
-39.1
-38.0
-37.4
-37.2
-37.7
-38.1
-38.4
-38.1
-37.4
-36.3
-34.9
-33.5
-32.1
-31.0
-30.2
-29.7
-29.6
-29.6
-29.6
-29.4
-28.6
-27.4
-26.0
-24.6
-23.7
-23.0
-22.6
-22.0
-21.2
-20.6
-20.1
-19.6
-19.3
-18.7
-17.8
-16.0
-14.2
-12.2
-10.4
-9.5
-9.0
-8.7
-8.7
-8.9
-8.7
-8.3
-7.5
-6.6
-6.1
-6.2
-6.6
-7.0
-7.5
-8.1
-8.7
-9.2
-9.5
-9.5
-9.7
-10.4
-11.7
-13.6
-15.6
-17.3
-18.7
-19.9
-21.5
-23.2
-24.9
-26.5
-28.2
-29.9
-31.6
-33.3
-34.6
-35.8
-36.9
-38.1
-39.2
-39.8
-40.3
-41.1
-42.2
-43.3
-44.4
-45.3
-46.1
-46.8
-47.6
-48.6
-49.5
-50.1
-50.3
-50.4
-50.6
-50.6
-50.6
-50.4
-50.6
-51.2
-52.4
-53.8
-55.1
-56.2
-56.9
-57.6
-58.3
-59.4
-60.8
-62.2
-63.3
-63.6
-63.2
-62.1
-60.5
-59.3
-58.7
-58.5
-58.5
-58.5
-58.3
-58.3
-58.3
-58.5
-59.1
-59.7
-60.1
-59.6
-58.8
-58.0
-57.4
-56.6
-55.9
-54.9
-53.8
-52.6
-52.0
-52.1
-52.6
-53.2
-53.4
-52.9
-51.7
-50.3
-49.6
-49.8
-50.6
-51.3
-52.0
-52.1
-52.3
-52.3
-52.4
-52.6
-52.3
-51.7
-51.0
-50.4
-49.9
-49.9
-49.9
-49.8
-49.8
-49.8
-49.6
-49.2
-48.9
-48.9
-49.2
-49.5
-50.1
-50.6
-50.7
-50.4
-49.9
-49.6
-49.5
-49.2
-48.9
-48.6
-48.1
-47.8
-47.6
-47.5
-47.3
-47.0
-46.5
-46.1
-45.8
-45.6
-45.4
-45.3
-45.3
-45.8
-46.5
-47.2
-47.5
-47.5
-46.8
-46.1
-45.4
-45.1
-45.3
-45.4
-45.6
-45.6
-45.6
-45.6
-45.3
-45.0
-45.0
-44.8
-44.8
-44.8
-44.7
-44.5
-44.2
-43.6
-43.1
-42.8
-42.5
-42.0
-41.7
-41.6
-41.7
-41.9
-42.0
-42.2
-42.2
-42.3
-42.3
-42.2
-41.9
-41.6
-41.2
-41.2
-41.6
-42.2
-42.5
-42.2
-41.7
-41.6
-41.7
-42.0
-42.3
-42.8
-43.1
-43.4
-43.4
-43.6
-43.7
-44.2
-44.8
-45.6
-46.1
-46.2
-46.1
-45.9
-45.9
-45.9
-45.8
-45.6
-45.1
-44.4
-43.4
-42.5
-42.0
-41.9
-41.7
-41.7
-42.2
-43.0
-43.7
-44.2
-44.0
-43.6
-43.3
-43.1
-43.4
-44.0
-44.7
-44.8
-44.7
-44.0
-43.0
-41.9
-40.9
-40.3
-40.0
-39.8
-39.4
-38.4
-37.2
-35.6
-34.2
-33.2
-32.5
-32.1
-31.9
-31.9
-31.8
-31.3
-30.0
-28.5
-27.1
-26.0
-25.5
-25.5
-25.2
-24.6
-23.0
-20.6
-17.6
-14.3
-10.8
-6.9
-3.6
-1.3
0.2
1.4
2.8
4.5
5.8
6.6
6.2
5.2
2.5
-1.4
-6.7
-12.8
-18.8
-24.3
-28.8
-32.5
-35.2
-37.4
-38.9
-40.2
-41.2
-42.6
-44.2
-45.6
-46.8
-48.1
-49.0
-49.9
-50.7
-51.5
-52.0
-52.3
-52.3
-52.3
-52.3
-52.6
-52.9
-53.2
-53.2
-53.1
-52.1
-49.9
-46.5
-41.9
-35.8
-28.3
-18.5
-5.8
10.9
32.7
60.2
92.4
125.8
156.8
181.7
198.8
205.5
198.2
174.4
134.7
84.0
28.6
-25.7
-75.8
-119.3
-155.2
-182.6
-201.3
-212.5
-217.6
-218.1
-214.6
-208.0
-198.3
-186.7
-173.3
-158.5
-142.6
-126.6
-111.5
-98.3
-87.1
-78.3
-71.1
-65.5
-61.3
-58.5
-57.3
-57.1
-57.4
-57.6
-57.6
-57.1
-56.6
-55.9
-55.2
-54.6
-54.0
-53.5
-52.9
-52.3
-51.8
-51.5
-51.0
-50.7
-50.3
-49.8
-49.3
-49.0
-48.7
-48.4
-48.1
-47.8
-47.3
-47.2
-47.2
-47.2
-47.2
-47.0
-46.7
-46.4
-46.2
-45.8
-45.3
-44.8
-44.7
-44.7
-44.5
-44.0
-43.1
-42.0
-41.2
-40.8
-40.6
-40.8
-41.2
-41.9
-42.0
-41.6
-41.1
-40.9
-40.9
-41.2
-41.6
-41.6
-40.8
-39.5
-38.6
-38.0
-37.8
-37.7
-37.5
-37.4
-37.4
-37.5
-37.4
-37.0
-36.4
-36.0
-36.0
-36.1
-36.0
-35.3
-34.2
-33.3
-32.7
-32.2
-31.9
-31.8
-31.3
-31.0
-30.7
-30.2
-29.7
-29.0
-28.0
-27.1
-25.8
-24.3
-22.7
-21.5
-20.7
-20.2
-20.1
-19.6
-18.7
-17.4
-15.7
-14.2
-12.8
-11.4
-9.7
-7.6
-5.3
-3.3
-1.6
-0.5
0.0
-0.2
-0.6
-1.0
-1.0
-0.8
-0.3
0.0
0.5
1.1
2.0
3.3
4.5
5.5
5.8
5.8
5.8
5.6
4.8
3.6
2.2
0.5
-1.0
-2.2
-3.0
-3.6
-4.2
-5.0
-5.9
-6.9
-8.4
-10.1
-12.3
-14.3
-16.2
-17.9
-19.5
-20.9
-22.4
-23.8
-24.9
-26.3
-27.6
-29.0
-30.4
-31.6
-32.7
-33.8
-34.9
-35.6
-36.3
-36.6
-36.6
-36.7
-37.2
-37.8
-38.9
-39.8
-40.0
-39.7
-39.5
-39.8
-40.6
-41.6
-42.2
-42.6
-43.0
-43.0
-42.8
-42.3
-41.9
-41.6
-41.4
-41.7
-42.3
-43.3
-44.2
-45.0
-45.1
-45.0
-44.8
-44.7
-44.7
-44.5
-44.0
-43.6
-43.6
-44.0
-45.0
-45.8
-46.1
-46.2
-46.1
-45.9
-45.9
-46.2
-46.5
-46.8
-47.2
-47.3
-47.2
-46.7
-45.8
-45.1
-44.8
-45.0
-45.4
-46.2
-46.7
-47.2
-47.6
-48.2
-49.0
-49.6
-49.6
-49.3
-48.9
-48.6
-48.2
-47.9
-47.8
-47.5
-47.3
-46.8
-46.2
-46.1
-46.2
-46.5
-46.5
-46.2
-45.9
-45.8
-45.9
-46.2
-46.5
-47.0
-47.3
-47.6
-47.9
-48.2
-48.6
-48.9
-49.0
-49.3
-49.3
-48.9
-48.1
-47.3
-47.0
-47.0
-47.2
-47.2
-47.2
-47.0
-46.7
-46.4
-46.2
-46.4
-46.8
-47.3
-47.3
-47.2
-46.7
-45.9
-45.0
-43.9
-43.4
-43.7
-44.2
-44.5
-44.5
-44.4
-44.4
-44.7
-45.0
-45.3
-45.0
-44.4
-43.7
-43.0
-42.6
-42.6
-43.1
-43.7
-44.2
-44.2
-43.9
-43.6
-43.6
-43.6
-43.4
-43.3
-43.3
-43.1
-42.6
-41.9
-41.1
-40.2
-39.8
-39.8
-40.2
-40.6
-41.1
-41.6
-41.7
-41.7
-41.7
-41.9
-41.9
-42.0
-42.2
-42.2
-41.9
-41.1
-40.2
-39.5
-39.4
-39.5
-40.0
-40.5
-40.6
-40.8
-40.8
-40.8
-40.9
-41.4
-41.9
-42.3
-42.5
-42.5
-42.6
-43.0
-43.6
-44.4
-45.0
-45.4
-45.6
-45.4
-45.1
-44.7
-44.5
-44.4
-44.5
-44.8
-45.0
-44.8
-44.5
-44.2
-43.9
-43.9
-44.4
-45.0
-45.8
-46.4
-46.5
-46.4
-46.2
-45.8
-45.0
-43.9
-42.6
-41.2
-39.8
-38.8
-37.5
-36.1
-34.9
-33.9
-33.6
-33.2
-32.1
-30.4
-28.3
-26.6
-25.4
-24.6
-24.1
-23.7
-22.7
-21.2
-18.8
-15.9
-12.5
-9.0
-5.5
-2.2
0.3
2.4
3.8
5.0
6.1
6.9
7.0
6.4
5.0
2.7
-0.6
-5.6
-11.4
-17.6
-23.7
-29.0
-33.3
-36.7
-39.4
-41.2
-42.8
-44.2
-45.9
-47.5
-49.0
-50.4
-51.7
-52.7
-53.5
-54.0
-54.5
-54.8
-55.4
-56.0
-56.5
-57.1
-57.6
-58.2
-59.0
-59.6
-59.9
-59.3
-57.7
-54.9
-50.6
-45.0
-37.7
-28.0
-15.0
1.9
24.0
51.2
83.1
116.8
148.6
174.8
193.2
200.8
194.4
171.1
131.1
79.0
21.5
-35.3
-87.6
-132.8
-169.5
-197.2
-216.5
-228.3
-233.6
-233.3
-228.3
-219.6
-208.6
-196.0
-182.5
-167.8
-152.4
-136.6
-121.2
-107.6
-96.1
-86.8
-79.8
-74.5
-70.9
-68.3
-66.3
-64.7
-63.6
-63.0
-62.7
-62.7
-62.5
-62.1
-61.0
-59.7
-58.7
-57.9
-57.7
-57.4
-56.9
-55.9
-54.5
-52.9
-51.7
-50.9
-50.6
-50.9
-51.2
-51.7
-51.8
-51.8
-52.0
-51.8
-51.7
-51.3
-51.2
-51.3
-51.5
-51.2
-50.6
-49.5
-48.6
-47.9
-47.9
-48.1
-48.2
-48.1
-47.8
-47.3
-46.7
-46.1
-45.8
-45.8
-45.6
-45.3
-44.7
-43.6
-42.6
-41.9
-41.7
-42.2
-42.8
-43.4
-43.7
-43.3
-42.2
-40.8
-39.8
-39.2
-39.1
-39.1
-39.1
-38.9
-38.3
-37.7
-36.9
-36.4
-36.0
-35.5
-35.2
-35.0
-35.0
-35.0
-34.7
-33.9
-33.0
-32.2
-31.6
-31.0
-30.4
-29.6
-28.8
-28.2
-27.6
-26.6
-25.1
-23.7
-22.4
-21.5
-20.9
-20.2
-19.8
-19.5
-19.2
-18.7
-18.2
-17.3
-16.0
-14.5
-13.1
-11.7
-10.8
-9.8
-9.0
-8.3
-7.2
-6.1
-4.8
-3.8
-3.3
-3.4
-4.1
-4.7
-5.0
-4.5
-3.6
-2.5
-1.9
-1.9
-2.5
-3.3
-3.9
-4.2
-4.5
-4.8
-5.3
-5.8
-6.6
-7.5
-9.0
-10.8
-12.3
-13.9
-15.1
-16.2
-17.6
-19.0
-20.4
-21.8
-22.7
-23.7
-25.1
-26.8
-29.0
-31.1
-32.8
-34.2
-35.0
-35.2
-35.2
-34.7
-34.2
-34.1
-34.2
-35.0
-36.3
-37.5
-38.9
-40.5
-42.2
-43.7
-45.1
-45.8
-45.8
-45.6
-45.1
-45.0
-44.8
-44.8
-45.3
-45.8
-45.9
-45.8
-45.3
-44.8
-44.8
-45.4
-46.8
-48.4
-49.8
-50.9
-51.3
-51.3
-51.0
-50.6
-50.1
-49.5
-49.5
-49.8
-50.1
-50.1
-49.8
-49.5
-49.2
-49.0
-49.2
-49.2
-49.2
-48.9
-48.7
-48.6
-48.7
-49.0
-48.9
-48.2
-47.2
-46.2
-45.4
-45.0
-45.0
-45.4
-45.9
-46.4
-46.7
-46.8
-47.0
-47.0
-47.0
-46.7
-46.7
-46.7
-46.5
-46.1
-45.3
-44.7
-44.2
-44.0
-44.2
-44.7
-45.3
-45.9
-46.2
-46.4
-46.2
-45.6
-45.0
-44.7
-44.8
-45.3
-45.9
-46.4
-46.5
-46.2
-45.4
-44.4
-43.6
-43.6
-44.4
-45.4
-46.7
-47.8
-48.4
-49.0
-49.2
-48.9
-48.6
-48.6
-48.9
-49.2
-49.2
-48.9
-48.1
-47.5
-46.8
-46.5
-46.1
-45.6
-45.3
-45.3
-45.6
-46.1
-45.9
-45.6
-45.4
-45.4
-45.3
-45.0
-45.0
-45.1
-45.1
-45.0
-44.5
-44.0
-43.9
-43.6
-43.3
-43.1
-43.3
-43.7
-44.4
-45.1
-46.1
-46.7
-46.8
-46.5
-45.8
-44.8
-43.9
-43.3
-42.8
-42.3
-41.9
-41.7
-41.7
-42.2
-42.8
-43.1
-43.3
-43.0
-42.3
-41.4
-40.6
-40.2
-40.5
-40.9
-41.4
-41.7
-41.9
-42.0
-42.0
-41.7
-41.4
-41.2
-41.4
-41.7
-41.7
-41.4
-41.1
-41.1
-41.2
-41.2
-40.9
-40.6
-40.0
-39.5
-38.9
-38.6
-38.4
-38.4
-38.4
-39.1
-39.8
-40.6
-40.9
-40.9
-40.5
-39.7
-39.1
-38.9
-38.8
-38.6
-38.4
-38.1
-37.8
-37.5
-37.2
-36.9
-36.6
-36.6
-37.2
-38.1
-38.6
-38.4
-37.4
-36.1
-34.7
-33.2
-31.6
-30.2
-29.1
-28.3
-27.6
-26.8
-26.2
-25.5
-25.1
-24.6
-24.0
-23.0
-21.8
-20.4
-19.3
-18.4
-17.6
-16.4
-14.2
-11.5
-8.3
-4.7
-1.0
2.5
5.8
8.4
10.4
12.3
14.0
15.4
16.2
15.7
13.9
10.4
5.8
0.2
-5.6
-11.5
-17.0
-21.8
-25.7
-29.1
-32.5
-36.0
-39.7
-43.1
-46.1
-48.2
-49.6
-50.4
-50.7
-51.0
-51.0
-51.0
-50.9
-50.9
-51.2
-51.8
-52.7
-54.0
-55.1
-55.5
-55.5
-55.4
-55.2
-54.6
-52.9
-50.1
-46.4
-41.4
-34.7
-25.2
-11.8
6.2
29.7
58.8
92.4
127.2
159.0
184.0
200.2
205.0
194.7
167.2
123.2
67.7
7.8
-50.4
-103.1
-147.5
-182.0
-206.9
-222.9
-231.9
-235.2
-233.9
-228.6
-220.1
-209.2
-196.6
-183.4
-169.5
-154.8
-139.7
-124.8
-111.1
-98.9
-88.4
-79.5
-72.8
-68.3
-65.7
-64.3
-63.0
-61.6
-60.1
-58.8
-57.9
-57.3
-56.3
-54.9
-53.2
-51.3
-49.6
-48.7
-47.9
-47.6
-47.6
-47.6
-47.6
-47.2
-46.7
-46.1
-45.8
-45.6
-45.6
-45.8
-45.8
-45.4
-45.0
-44.4
-43.7
-43.1
-42.5
-42.2
-42.0
-42.2
-42.3
-42.6
-43.0
-43.1
-43.1
-42.8
-42.2
-41.7
-41.6
-41.4
-40.9
-40.0
-38.9
-38.0
-37.5
-37.7
-38.0
-38.4
-38.9
-39.5
-40.2
-40.8
-41.6
-42.0
-42.2
-41.7
-40.8
-39.7
-38.9
-38.4
-38.3
-38.3
-38.0
-37.2
-36.1
-34.9
-33.9
-33.2
-32.5
-32.1
-31.6
-31.3
-31.0
-30.8
-30.7
-30.5
-30.5
-30.4
-30.2
-29.9
-29.0
-27.4
-25.4
-23.5
-21.8
-20.7
-20.1
-19.9
-19.8
-19.5
-18.8
-17.6
-16.2
-14.8
-13.7
-13.2
-12.9
-12.8
-12.2
-11.4
-10.6
-9.5
-8.0
-6.1
-4.2
-2.7
-1.6
-0.8
-0.2
0.2
0.5
0.5
0.3
0.3
0.5
0.8
1.4
2.2
2.8
3.0
2.5
1.4
0.8
0.8
1.4
2.2
2.5
2.2
1.6
0.0
-2.0
-4.4
-6.4
-8.1
-9.5
-11.1
-13.1
-15.7
-18.5
-21.0
-22.9
-23.8
-24.0
-24.0
-24.0
-24.6
-25.7
-27.2
-29.6
-32.2
-34.9
-37.4
-39.5
-41.2
-42.6
-43.7
-44.4
-44.7
-44.4
-43.6
-42.8
-42.6
-43.4
-45.0
-46.8
-48.2
-49.5
-50.4
-51.2
-51.7
-51.7
-51.3
-50.7
-50.1
-49.6
-49.3
-48.9
-48.1
-47.2
-46.2
-45.3
-44.5
-44.0
-44.5
-45.3
-46.1
-46.5
-47.0
-47.5
-48.1
-48.9
-49.3
-49.5
-49.6
-49.5
-49.0
-48.2
-47.5
-47.2
-46.8
-46.5
-45.6
-44.4
-43.3
-42.6
-42.8
-43.4
-44.4
-45.3
-46.1
-46.7
-46.8
-46.8
-47.0
-47.2
-47.5
-47.3
-46.5
-45.6
-44.7
-44.2
-44.4
-44.5
-44.7
-44.7
-44.5
-43.9
-43.3
-42.8
-42.5
-42.3
-42.0
-41.9
-41.9
-42.0
-42.0
-42.2
-42.2
-42.0
-41.6
-41.4
-41.6
-42.0
-42.0
-41.9
-41.7
-41.9
-42.2
-42.3
-42.3
-42.2
-41.9
-41.6
-41.2
-40.9
-40.8
-40.8
-41.1
-41.4
-41.9
-42.2
-42.2
-41.9
-41.4
-41.1
-41.1
-41.4
-41.7
-42.0
-42.3
-42.6
-43.1
-43.6
-43.6
-43.1
-42.6
-42.0
-41.4
-40.5
-39.8
-39.5
-39.8
-40.5
-41.2
-41.7
-41.9
-41.9
-41.7
-41.2
-40.6
-40.0
-39.2
-38.6
-38.4
-38.1
-37.8
-37.0
-36.4
-36.3
-36.6
-37.0
-37.5
-37.8
-38.1
-38.6
-38.8
-38.6
-38.1
-38.0
-38.3
-38.9
-39.8
-40.8
-41.6
-42.0
-42.5
-42.8
-42.8
-42.5
-42.0
-41.6
-41.4
-41.2
-41.1
-40.9
-41.1
-41.6
-42.0
-42.3
-42.3
-41.4
-40.2
-38.6
-37.5
-36.9
-36.4
-36.4
-36.6
-36.9
-37.2
-37.0
-36.9
-36.6
-36.3
-36.0
-35.6
-35.5
-35.2
-35.0
-34.9
-35.3
-35.8
-36.1
-35.8
-35.3
-34.7
-33.9
-33.2
-32.5
-32.1
-31.4
-30.5
-29.9
-29.3
-29.0
-29.0
-29.1
-29.3
-29.6
-29.9
-30.0
-29.1
-27.2
-25.2
-23.4
-21.8
-20.7
-20.1
-19.9
-19.9
-19.5
-18.2
-15.7
-12.3
-8.7
-5.3
-2.2
0.3
3.0
5.6
8.3
10.6
12.0
12.5
12.0
10.4
8.1
5.0
0.8
-4.1
-9.7
-15.3
-20.4
-24.8
-28.6
-31.8
-34.4
-36.6
-38.8
-40.9
-43.0
-44.8
-46.4
-47.5
-48.1
-48.7
-49.2
-49.9
-50.6
-51.2
-51.8
-52.6
-53.5
-54.5
-54.9
-54.9
-54.1
-53.4
-52.4
-51.2
-49.3
-46.4
-42.2
-36.1
-27.1
-14.0
3.9
27.2
56.6
91.3
128.5
163.5
191.9
211.4
219.2
212.0
186.7
143.1
86.0
22.6
-40.8
-99.6
-150.7
-192.1
-222.9
-243.1
-254.0
-257.4
-254.9
-247.9
-237.4
-224.6
-210.6
-196.0
-181.1
-165.8
-150.9
-136.6
-123.0
-110.3
-98.9
-89.3
-81.5
-75.1
-70.0
-65.7
-62.2
-59.7
-58.3
-57.6
-57.3
-56.9
-56.3
-55.2
-53.7
-52.1
-51.0
-50.3
-49.2
-48.1
-47.0
-46.4
-46.4
-46.7
-47.3
-48.1
-48.7
-49.2
-49.3
-49.2
-48.6
-47.2
-45.1
-43.3
-41.6
-40.3
-39.4
-38.8
-38.3
-37.8
-37.5
-37.4
-37.7
-38.4
-39.4
-40.3
-40.8
-41.1
-40.9
-40.5
-39.7
-38.8
-37.8
-37.4
-37.5
-37.8
-37.7
-37.2
-36.7
-36.6
-36.3
-36.0
-35.6
-35.3
-34.9
-34.4
-33.9
-33.6
-33.8
-34.2
-34.9
-35.3
-35.6
-35.5
-34.6
-33.3
-32.1
-31.3
-31.0
-30.8
-30.5
-30.0
-29.4
-29.0
-28.6
-28.3
-27.7
-27.1
-26.3
-25.4
-24.6
-23.8
-23.0
-22.1
-21.2
-20.4
-19.5
-18.4
-17.0
-15.7
-14.8
-14.0
-13.1
-12.2
-11.2
-10.1
-9.2
-8.0
-6.6
-5.2
-3.9
-2.8
-1.6
-0.3
0.8
2.2
3.8
5.2
6.2
7.2
7.6
7.6
7.8
8.1
8.7
9.7
10.4
10.8
10.6
9.7
8.7
8.0
7.6
8.0
8.3
8.0
7.2
5.8
4.5
3.3
2.2
1.1
0.0
-1.1
-2.0
-2.8
-4.2
-6.4
-8.9
-11.2
-13.2
-15.0
-16.4
-17.8
-19.3
-21.2
-22.7
-24.1
-25.2
-26.3
-27.4
-29.0
-30.7
-32.2
-33.6
-34.9
-36.0
-37.0
-38.1
-39.4
-40.6
-41.7
-42.2
-42.3
-42.2
-42.3
-42.6
-43.1
-43.7
-44.4
-44.8
-45.0
-44.7
-44.2
-43.9
-44.0
-44.4
-45.1
-46.1
-46.8
-46.8
-46.5
-46.2
-46.1
-46.1
-46.1
-46.2
-46.7
-47.5
-48.1
-48.2
-47.9
-47.3
-46.5
-46.1
-45.8
-45.6
-45.6
-45.3
-44.8
-44.2
-43.7
-43.7
-44.2
-44.5
-44.7
-44.5
-44.0
-43.4
-43.0
-42.6
-42.6
-42.5
-42.5
-42.0
-41.4
-40.3
-38.8
-37.4
-36.4
-36.6
-37.5
-38.8
-39.8
-40.5
-41.1
-42.0
-43.4
-44.8
-45.4
-45.3
-45.0
-44.5
-44.2
-44.0
-43.4
-42.6
-41.6
-40.3
-39.2
-38.3
-37.7
-37.2
-37.4
-38.0
-38.9
-40.2
-41.1
-41.7
-42.5
-43.4
-44.2
-44.5
-44.2
-43.7
-43.3
-42.6
-42.2
-41.6
-40.8
-39.7
-38.9
-38.6
-38.8
-39.2
-40.0
-40.8
-41.4
-41.7
-42.0
-42.5
-42.6
-42.2
-41.4
-40.2
-38.9
-37.4
-36.0
-35.2
-35.5
-36.6
-38.0
-39.1
-39.7
-39.8
-39.7
-39.7
-39.8
-40.2
-40.5
-40.6
-40.9
-40.9
-40.9
-40.8
-40.3
-39.7
-39.2
-39.4
-39.7
-39.8
-39.7
-39.4
-39.1
-39.1
-39.2
-39.4
-39.2
-38.8
-38.0
-37.0
-36.6
-36.6
-37.2
-38.0
-38.6
-39.2
-40.0
-40.9
-41.6
-42.0
-42.0
-42.3
-42.6
-42.8
-42.8
-42.6
-42.3
-42.0
-41.7
-41.6
-41.9
-42.2
-43.1
-44.2
-45.0
-45.0
-44.5
-43.9
-43.4
-43.4
-43.3
-43.3
-42.8
-42.3
-41.7
-40.9
-39.8
-39.1
-38.6
-38.8
-39.2
-39.5
-39.5
-39.2
-39.1
-38.8
-38.3
-37.7
-37.4
-37.5
-37.8
-37.8
-37.7
-37.2
-36.9
-36.1
-34.9
-33.2
-31.3
-29.4
-27.9
-26.8
-26.0
-25.4
-24.3
-22.4
-19.9
-16.7
-13.2
-9.5
-5.9
-2.8
-0.6
0.6
1.4
2.0
2.5
2.8
2.8
2.2
0.5
-2.0
-6.1
-10.9
-16.4
-21.5
-26.3
-30.5
-33.8
-36.0
-37.4
-38.9
-40.8
-42.8
-45.1
-47.5
-49.9
-52.4
-54.5
-56.2
-57.6
-58.3
-58.5
-58.3
-58.0
-57.6
-56.9
-56.3
-56.0
-55.9
-55.5
-54.9
-54.0
-52.7
-50.9
-48.1
-43.9
-38.3
-30.5
-19.3
-3.6
16.8
42.2
72.2
105.3
138.1
167.4
190.1
203.0
202.2
184.0
147.5
96.0
36.1
-25.1
-82.6
-133.2
-175.0
-207.0
-228.8
-241.2
-246.1
-244.5
-238.0
-227.9
-215.0
-200.5
-185.4
-170.3
-156.2
-143.1
-131.0
-119.5
-108.1
-97.5
-88.1
-80.4
-74.8
-70.6
-67.2
-64.3
-61.9
-60.7
-60.1
-59.6
-59.1
-58.5
-57.7
-56.9
-56.3
-56.0
-56.0
-56.2
-56.5
-56.5
-56.2
-55.9
-55.5
-54.8
-53.5
-51.7
-49.8
-48.6
-47.9
-47.6
-47.6
-47.6
-47.6
-47.5
-47.6
-48.2
-48.7
-49.2
-49.3
-49.5
-49.6
-50.1
-50.3
-50.1
-49.6
-49.3
-48.9
-48.2
-47.3
-46.1
-45.1
-44.4
-44.2
-44.4
-44.8
-45.3
-45.6
-45.3
-44.5
-43.9
-43.7
-43.7
-43.9
-43.7
-43.6
-43.3
-43.0
-42.3
-41.6
-40.5
-39.5
-38.6
-37.8
-37.0
-36.4
-36.3
-36.4
-36.9
-37.0
-37.0
-36.9
-36.6
-35.8
-34.6
-33.0
-31.4
-29.9
-28.5
-27.4
-26.9
-26.8
-26.6
-26.0
-24.9
-23.8
-23.0
-22.4
-22.0
-21.3
-20.4
-19.3
-17.9
-16.7
-15.9
-15.1
-14.3
-13.4
-12.2
-10.6
-9.0
-7.2
-5.6
-4.7
-4.7
-5.0
-5.0
-4.7
-4.4
-4.4
-4.5
-4.5
-4.5
-4.5
-4.8
-4.7
-4.5
-4.4
-4.5
-4.5
-4.2
-3.9
-3.9
-4.4
-5.0
-5.8
-6.7
-7.8
-8.7
-10.0
-11.7
-13.9
-16.0
-18.2
-20.6
-22.7
-24.8
-26.2
-27.4
-28.3
-29.4
-30.7
-31.9
-33.2
-34.6
-36.1
-37.8
-39.5
-41.2
-42.8
-44.4
-45.9
-47.6
-49.2
-50.4
-51.0
-50.9
-50.3
-49.8
-49.9
-50.7
-52.0
-53.4
-54.8
-55.9
-56.9
-58.0
-59.3
-60.7
-61.6
-61.6
-60.8
-59.7
-58.8
-58.3
-57.9
-57.4
-56.6
-56.0
-55.7
-56.0
-56.5
-56.8
-57.1
-57.6
-58.5
-59.3
-59.6
-59.7
-59.6
-59.4
-59.4
-59.3
-59.1
-59.0
-59.0
-59.0
-58.8
-58.7
-58.5
-58.2
-57.4
-56.5
-55.5
-55.1
-54.6
-54.5
-54.5
-54.8
-55.1
-54.9
-54.5
-53.7
-52.9
-52.3
-52.1
-52.1
-52.0
-51.5
-50.7
-49.8
-48.9
-48.4
-48.6
-49.5
-50.7
-51.8
-52.4
-52.6
-52.4
-52.3
-51.8
-50.9
-50.3
-50.1
-50.4
-50.6
-50.1
-49.5
-48.9
-48.4
-47.9
-47.6
-47.6
-47.5
-47.3
-47.3
-47.6
-48.1
-48.6
-49.2
-49.6
-49.8
-49.6
-49.5
-49.3
-49.2
-49.0
-48.6
-47.9
-47.5
-47.0
-46.8
-47.0
-47.2
-47.6
-48.6
-49.5
-50.1
-50.1
-49.9
-49.8
-50.3
-51.2
-52.3
-52.9
-52.9
-52.1
-51.0
-49.6
-48.4
-47.6
-47.3
-47.8
-48.2
-48.6
-48.4
-48.1
-47.5
-46.7
-46.5
-46.8
-47.3
-47.5
-47.5
-47.5
-47.8
-48.2
-48.6
-48.9
-49.2
-49.9
-50.9
-51.2
-50.7
-49.8
-49.2
-49.2
-49.5
-49.8
-50.1
-49.9
-49.3
-48.7
-48.2
-47.9
-47.6
-47.2
-46.7
-46.5
-46.7
-47.2
-47.6
-48.4
-48.9
-49.0
-48.9
-48.7
-48.6
-48.6
-48.6
-48.6
-48.2
-48.1
-48.1
-47.8
-47.3
-46.4
-45.6
-45.1
-45.1
-45.4
-45.8
-45.8
-45.9
-46.1
-46.2
-46.4
-46.5
-46.7
-47.0
-47.6
-47.9
-47.9
-47.5
-46.5
-45.4
-44.2
-42.6
-41.6
-41.1
-40.8
-40.3
-39.2
-37.7
-36.1
-34.9
-34.1
-33.6
-33.8
-34.4
-35.0
-35.3
-35.0
-34.2
-33.0
-31.6
-30.4
-29.0
-27.6
-25.7
-23.5
-21.0
-18.5
-16.4
-14.2
-12.2
-10.0
-8.0
-5.8
-3.4
-1.6
-0.3
-0.2
-1.0
-2.4
-4.4
-7.2
-10.8
-15.0
-19.3
-23.7
-27.9
-31.8
-35.2
-37.7
-39.5
-40.9
-42.3
-43.7
-45.4
-47.5
-49.5
-51.5
-52.9
-53.7
-54.1
-54.5
-54.8
-54.8
-54.1
-53.5
-53.2
-53.1
-53.1
-53.5
-54.1
-54.6
-54.1
-52.3
-49.5
-45.4
-40.2
-33.0
-22.6
-8.4
10.3
34.4
63.9
97.1
130.2
159.7
182.6
196.6
198.8
185.6
155.4
110.1
55.7
-1.6
-56.6
-105.8
-147.0
-178.9
-201.6
-216.0
-223.4
-224.8
-221.5
-214.2
-204.1
-192.1
-179.2
-165.8
-152.4
-139.4
-126.8
-115.0
-104.4
-95.1
-86.8
-79.8
-74.1
-69.5
-66.3
-64.1
-63.0
-62.4
-61.8
-61.5
-61.0
-60.5
-59.6
-58.7
-58.0
-57.7
-57.7
-57.6
-57.3
-56.6
-56.2
-55.5
-54.8
-53.8
-52.6
-51.3
-50.6
-50.4
-50.6
-50.9
-50.9
-50.7
-50.9
-51.3
-51.7
-51.7
-51.5
-51.3
-51.0
-50.7
-50.1
-49.6
-49.3
-49.5
-49.8
-49.8
-49.6
-49.0
-48.2
-47.5
-47.0
-47.2
-47.9
-48.9
-49.5
-49.8
-49.8
-49.2
-48.4
-47.8
-47.6
-47.8
-47.6
-47.2
-46.7
-46.2
-45.8
-45.1
-44.2
-43.1
-42.0
-41.2
-40.8
-40.3
-40.2
-40.0
-39.7
-39.5
-39.4
-39.2
-39.1
-38.4
-37.7
-37.0
-36.4
-36.0
-35.5
-35.2
-35.0
-34.9
-34.7
-34.1
-33.3
-32.4
-31.6
-31.0
-30.2
-29.6
-28.8
-27.4
-25.7
-23.7
-22.0
-20.9
-20.6
-20.7
-21.0
-20.9
-20.2
-19.6
-19.0
-18.5
-17.9
-17.1
-15.6
-13.6
-11.5
-9.8
-8.7
-7.6
-6.7
-5.9
-5.6
-5.6
-5.8
-6.1
-6.4
-6.6
-6.7
-6.9
-7.0
-7.2
-7.6
-8.4
-9.0
-9.7
-10.6
-11.5
-12.3
-13.2
-14.0
-15.1
-16.4
-17.8
-19.2
-20.6
-22.0
-23.5
-25.4
-27.4
-29.3
-31.0
-32.5
-34.2
-36.1
-38.0
-39.5
-40.9
-42.0
-43.0
-43.3
-43.1
-43.1
-43.4
-44.0
-44.5
-44.7
-44.7
-44.8
-45.3
-46.1
-47.0
-48.1
-49.2
-50.3
-51.0
-51.7
-51.8
-52.1
-52.7
-53.1
-52.9
-52.3
-51.5
-51.3
-51.5
-51.7
-51.8
-52.1
-52.4
-52.9
-53.5
-53.8
-54.0
-54.0
-54.3
-54.9
-55.5
-56.2
-56.6
-56.8
-56.8
-56.6
-56.5
-56.5
-56.6
-56.3
-55.7
-54.8
-53.4
-52.1
-51.0
-50.7
-51.0
-51.5
-52.4
-53.4
-53.7
-53.2
-51.8
-50.1
-48.6
-47.8
-47.9
-48.6
-49.0
-49.5
-49.8
-50.1
-50.6
-51.0
-51.5
-51.5
-51.3
-51.0
-50.7
-50.4
-50.1
-49.9
-49.8
-49.9
-50.4
-50.9
-51.2
-51.0
-50.3
-49.0
-47.5
-46.2
-45.6
-45.4
-45.4
-45.4
-45.4
-45.6
-45.8
-46.2
-46.7
-47.0
-47.0
-46.8
-46.7
-46.5
-46.4
-46.5
-46.7
-46.5
-46.2
-45.6
-45.1
-45.0
-45.1
-45.4
-46.1
-46.8
-47.5
-47.6
-47.3
-46.8
-46.4
-46.1
-46.2
-46.8
-47.3
-47.6
-47.5
-47.2
-46.5
-46.2
-46.2
-46.4
-46.4
-46.2
-46.1
-45.8
-45.4
-45.3
-45.3
-45.4
-45.4
-45.1
-44.8
-44.4
-44.0
-43.6
-43.3
-43.3
-43.6
-44.0
-44.2
-43.9
-42.8
-41.6
-40.9
-41.1
-41.9
-42.5
-42.6
-42.3
-41.7
-41.4
-41.6
-42.2
-42.8
-43.3
-43.6
-43.9
-44.2
-44.4
-44.4
-44.4
-44.5
-44.8
-45.1
-45.1
-45.1
-45.0
-44.8
-44.5
-43.7
-42.6
-42.0
-41.9
-42.3
-42.8
-43.3
-43.7
-44.0
-44.2
-44.5
-44.7
-44.7
-44.2
-43.7
-43.1
-42.3
-41.7
-41.2
-41.1
-40.9
-40.8
-40.8
-41.1
-41.6
-42.2
-43.0
-43.4
-43.9
-44.0
-43.9
-43.4
-43.0
-42.5
-42.3
-42.3
-42.5
-42.8
-43.0
-43.0
-42.6
-42.5
-43.0
-43.7
-44.5
-45.0
-44.4
-43.0
-40.9
-38.8
-36.9
-35.6
-35.2
-35.3
-35.8
-35.8
-35.3
-34.1
-32.5
-30.7
-28.5
-26.5
-25.2
-24.4
-23.7
-22.3
-20.1
-17.4
-14.8
-12.3
-9.7
-7.2
-4.8
-2.4
0.0
2.5
4.7
6.2
7.0
6.9
5.6
3.0
-1.1
-6.4
-12.3
-17.9
-23.2
-27.9
-31.8
-35.0
-37.8
-39.7
-40.9
-41.4
-41.6
-42.3
-43.6
-45.3
-46.8
-48.1
-49.0
-49.9
-51.2
-52.3
-53.2
-53.8
-54.1
-54.6
-54.9
-55.2
-55.4
-55.2
-54.8
-53.5
-51.2
-47.6
-42.6
-36.4
-28.5
-17.9
-3.9
13.9
36.6
64.4
96.3
129.0
158.7
182.5
198.2
202.8
192.4
164.9
122.1
69.9
14.2
-39.5
-88.1
-129.3
-162.4
-187.4
-204.5
-214.8
-219.0
-217.9
-212.3
-203.4
-192.4
-180.3
-167.5
-153.8
-139.2
-124.3
-110.1
-97.4
-87.0
-78.7
-72.5
-68.1
-65.3
-63.9
-63.5
-63.2
-62.9
-62.2
-61.6
-61.3
-61.0
-60.7
-59.9
-59.1
-58.8
-58.8
-59.0
-58.8
-58.0
-57.1
-56.0
-55.1
-54.3
-53.8
-53.5
-53.4
-53.1
-52.9
-52.6
-52.4
-52.1
-52.0
-52.0
-52.0
-52.0
-51.8
-51.3
-50.9
-50.6
-50.4
-50.4
-50.6
-50.7
-51.0
-51.2
-51.3
-51.0
-50.6
-49.6
-48.9
-48.2
-48.1
-48.4
-48.7
-48.9
-48.6
-48.1
-47.6
-46.8
-45.9
-44.7
-43.6
-43.0
-42.6
-42.2
-41.4
-40.6
-40.0
-39.4
-39.1
-38.8
-38.4
-38.4
-38.4
-38.8
-38.9
-38.8
-38.1
-37.2
-36.6
-36.4
-36.3
-36.4
-36.6
-37.2
-38.0
-38.9
-39.7
-40.2
-40.0
-38.9
-37.4
-35.8
-34.4
-33.3
-32.4
-31.3
-29.9
-28.2
-26.2
-24.4
-23.2
-22.9
-22.9
-22.9
-22.9
-22.4
-22.1
-21.3
-20.6
-19.3
-17.8
-16.2
-14.8
-13.4
-12.0
-10.4
-9.0
-7.8
-6.9
-6.6
-6.6
-6.7
-6.7
-6.2
-5.5
-4.8
-4.5
-4.7
-5.0
-5.5
-5.9
-6.1
-6.6
-7.2
-8.1
-9.2
-10.3
-11.5
-12.5
-12.5
-12.0
-11.7
-12.3
-13.7
-15.9
-18.1
-20.1
-22.0
-23.5
-24.8
-25.5
-26.0
-26.5
-27.1
-28.0
-29.3
-30.5
-31.8
-32.7
-33.3
-34.1
-35.0
-36.4
-37.5
-38.4
-39.4
-40.3
-41.1
-41.6
-41.7
-41.9
-42.2
-42.8
-43.6
-44.0
-44.5
-44.8
-45.1
-45.4
-45.8
-45.9
-45.9
-45.6
-45.3
-45.1
-45.0
-45.1
-45.4
-46.1
-46.8
-47.5
-47.6
-47.5
-47.2
-46.8
-46.4
-46.1
-45.9
-45.8
-45.6
-45.3
-45.4
-45.9
-46.8
-47.6
-48.2
-48.4
-48.2
-47.8
-47.2
-46.8
-46.5
-46.2
-46.1
-46.1
-46.1
-46.2
-46.2
-46.4
-46.5
-46.5
-46.5
-46.7
-47.0
-47.5
-47.3
-46.8
-46.5
-46.2
-46.2
-46.4
-46.7
-46.4
-45.8
-45.1
-44.8
-45.3
-46.1
-46.7
-46.8
-46.4
-45.4
-44.4
-43.6
-43.4
-43.9
-44.8
-45.6
-46.1
-46.2
-45.9
-45.4
-45.0
-44.5
-44.2
-44.0
-44.0
-43.9
-43.6
-42.8
-42.3
-42.5
-43.0
-43.1
-43.1
-42.8
-42.3
-41.7
-41.1
-40.5
-40.5
-40.8
-41.4
-42.0
-42.6
-43.0
-43.0
-42.6
-42.3
-42.2
-41.9
-41.2
-40.2
-39.2
-38.9
-39.1
-39.7
-40.5
-41.1
-41.2
-40.9
-40.2
-39.5
-39.1
-39.1
-39.4
-40.0
-40.6
-41.1
-41.7
-42.3
-42.6
-42.8
-43.3
-43.6
-43.9
-44.2
-44.4
-44.5
-44.2
-43.4
-42.6
-42.2
-42.0
-42.2
-42.3
-42.5
-42.6
-42.8
-42.8
-42.6
-42.5
-42.3
-41.9
-41.6
-41.1
-40.8
-40.8
-40.8
-40.9
-41.1
-41.4
-41.7
-42.2
-42.3
-41.9
-41.1
-40.3
-39.5
-39.1
-38.9
-39.1
-39.2
-39.2
-38.6
-37.7
-36.7
-36.4
-36.7
-37.2
-37.8
-38.4
-38.8
-38.4
-38.0
-37.7
-37.8
-37.8
-37.8
-37.5
-37.2
-37.0
-36.7
-36.6
-36.3
-36.1
-36.3
-36.6
-37.0
-37.5
-38.1
-38.9
-39.2
-38.9
-38.6
-38.4
-38.6
-38.8
-38.9
-38.8
-38.4
-38.0
-37.4
-36.3
-34.9
-33.6
-32.2
-31.0
-29.7
-28.6
-27.9
-27.4
-27.2
-27.2
-27.4
-27.4
-27.2
-26.5
-25.4
-24.3
-23.2
-22.3
-21.2
-19.8
-17.9
-15.7
-12.9
-9.8
-6.4
-3.3
-0.3
2.0
4.5
6.7
9.0
11.1
12.6
13.2
12.9
11.5
8.7
4.4
-1.0
-6.6
-12.3
-17.8
-22.6
-26.6
-29.6
-32.1
-33.9
-35.8
-37.5
-39.4
-41.2
-43.0
-44.5
-45.8
-46.7
-47.6
-48.6
-49.9
-51.5
-52.9
-53.8
-54.6
-55.2
-55.5
-55.7
-55.7
-55.5
-54.8
-53.4
-51.2
-47.8
-43.6
-38.1
-30.8
-20.7
-6.7
11.7
35.5
65.0
98.2
131.8
161.6
185.3
200.3
203.4
191.3
161.8
117.1
63.2
6.2
-48.1
-97.1
-138.8
-172.2
-196.9
-213.6
-222.7
-226.3
-225.4
-220.7
-212.5
-201.4
-188.8
-175.1
-160.5
-145.1
-129.6
-114.8
-102.0
-91.5
-83.5
-77.6
-73.7
-71.3
-69.5
-68.3
-67.5
-67.1
-67.1
-67.2
-67.4
-66.6
-64.9
-62.4
-60.2
-58.3
-56.9
-56.3
-56.3
-56.8
-57.3
-57.4
-56.9
-56.2
-55.4
-54.8
-54.1
-53.4
-52.6
-51.5
-50.7
-50.3
-49.8
-49.6
-49.5
-49.3
-49.2
-48.7
-48.2
-48.1
-48.1
-48.4
-49.0
-49.3
-49.5
-49.3
-48.7
-47.6
-46.5
-45.8
-45.3
-45.1
-45.1
-45.0
-44.7
-44.0
-43.4
-43.1
-42.8
-42.6
-42.6
-42.8
-43.0
-42.8
-42.2
-41.7
-41.2
-41.1
-41.1
-41.2
-41.4
-41.4
-40.9
-40.5
-39.8
-39.8
-39.8
-39.8
-39.5
-38.8
-37.8
-37.0
-36.4
-36.0
-35.8
-35.8
-35.8
-35.3
-34.2
-32.8
-31.3
-30.0
-29.3
-28.8
-28.5
-28.2
-27.7
-27.2
-26.9
-26.0
-24.1
-21.8
-19.6
-18.1
-16.8
-15.7
-15.1
-14.5
-13.7
-12.9
-11.8
-10.8
-9.5
-8.3
-7.5
-7.0
-6.7
-6.7
-6.4
-5.9
-5.2
-4.5
-3.9
-3.1
-2.4
-1.7
-1.4
-1.1
-0.8
-0.5
-0.5
-0.3
0.0
0.3
0.5
0.2
-0.3
-1.3
-2.2
-3.3
-4.8
-6.7
-8.6
-10.1
-11.7
-13.1
-14.5
-15.7
-16.7
-17.3
-18.1
-18.7
-19.5
-20.4
-21.6
-23.2
-24.6
-25.7
-26.6
-27.6
-28.6
-29.9
-31.1
-32.2
-33.3
-34.1
-34.7
-35.5
-36.4
-37.5
-38.4
-39.1
-39.2
-38.8
-38.3
-38.1
-38.6
-39.7
-40.9
-41.9
-42.2
-42.5
-42.6
-42.6
-42.3
-41.7
-41.4
-41.1
-41.1
-40.9
-40.8
-40.6
-40.5
-40.3
-40.8
-41.9
-42.8
-43.1
-42.8
-42.2
-41.7
-41.2
-41.1
-41.1
-41.4
-42.0
-42.8
-43.1
-43.4
-43.6
-43.9
-44.4
-44.7
-45.0
-45.1
-45.0
-44.0
-42.8
-41.2
-40.3
-40.2
-40.6
-41.7
-42.8
-43.9
-44.5
-44.8
-45.1
-45.1
-45.0
-44.2
-43.3
-42.5
-42.0
-41.9
-41.9
-41.7
-41.9
-42.3
-43.3
-44.0
-44.4
-44.2
-43.6
-43.1
-42.6
-42.5
-42.6
-42.6
-42.0
-40.8
-39.4
-38.1
-37.5
-37.5
-38.0
-38.8
-39.4
-39.7
-39.5
-38.8
-38.0
-37.5
-37.8
-38.8
-39.7
-39.8
-39.8
-39.5
-39.5
-39.4
-39.4
-39.2
-39.2
-39.4
-39.7
-39.8
-39.8
-39.7
-39.8
-40.0
-40.3
-40.3
-40.5
-40.6
-40.8
-40.9
-40.9
-40.8
-40.2
-39.4
-38.8
-38.6
-38.8
-38.9
-39.1
-39.2
-39.4
-39.4
-38.9
-38.3
-37.7
-37.2
-37.0
-36.7
-36.7
-36.7
-36.9
-36.9
-36.6
-35.6
-34.6
-33.6
-33.5
-33.9
-34.9
-35.8
-36.4
-36.7
-36.7
-36.6
-36.4
-36.6
-36.9
-37.4
-37.7
-37.8
-37.8
-37.5
-37.4
-37.5
-37.8
-38.6
-39.5
-40.2
-40.5
-40.3
-39.8
-39.4
-39.2
-39.5
-39.8
-39.8
-39.7
-39.4
-39.2
-39.2
-39.4
-39.4
-39.4
-39.2
-39.2
-38.9
-38.8
-38.6
-38.3
-38.1
-38.3
-38.8
-39.2
-39.7
-39.8
-39.8
-39.7
-39.4
-38.8
-38.4
-38.6
-38.9
-39.1
-38.8
-38.1
-37.7
-37.5
-37.5
-37.7
-37.7
-37.5
-37.5
-37.5
-37.4
-37.4
-37.5
-37.8
-38.3
-38.4
-38.1
-37.0
-35.5
-33.8
-32.2
-30.5
-28.8
-27.6
-26.8
-26.2
-25.8
-25.5
-25.4
-24.8
-24.0
-22.9
-21.6
-20.4
-19.6
-19.0
-18.1
-16.5
-14.0
-10.9
-7.2
-3.1
0.8
4.1
6.6
8.1
9.5
11.2
13.1
14.5
15.0
14.3
12.6
9.7
5.3
-0.2
-6.4
-12.6
-18.2
-22.7
-25.8
-28.0
-29.4
-30.8
-32.2
-34.1
-36.3
-38.8
-40.6
-42.0
-43.0
-44.2
-45.9
-47.5
-49.0
-50.1
-51.2
-52.0
-52.6
-52.9
-53.4
-54.0
-54.6
-55.2
-54.9
-53.7
-51.2
-47.5
-42.8
-36.9
-28.6
-17.1
-1.4
19.3
45.6
77.0
111.2
143.7
170.9
190.7
201.0
199.1
181.4
145.9
96.0
38.0
-21.2
-76.7
-125.4
-165.3
-196.0
-217.3
-230.4
-236.4
-237.2
-233.5
-226.3
-216.5
-204.5
-191.2
-176.9
-161.6
-145.8
-130.2
-115.7
-102.8
-91.8
-82.6
-75.3
-69.7
-65.3
-62.2
-60.4
-59.1
-58.3
-57.6
-56.9
-56.8
-56.6
-56.3
-55.7
-55.2
-54.6
-54.1
-53.5
-52.3
-50.7
-49.2
-48.6
-48.9
-49.6
-50.4
-51.0
-51.2
-51.2
-51.0
-50.9
-51.2
-51.5
-51.7
-51.3
-50.7
-49.9
-49.2
-48.7
-48.6
-48.7
-48.9
-49.0
-48.9
-48.6
-48.1
-47.3
-46.5
-46.4
-46.5
-47.0
-47.5
-47.6
-47.5
-47.2
-46.8
-46.7
-46.8
-47.2
-47.3
-47.3
-47.0
-46.5
-46.1
-45.6
-44.8
-43.7
-42.8
-42.3
-42.2
-42.2
-42.0
-42.0
-42.3
-42.8
-43.6
-44.2
-44.4
-43.9
-43.0
-41.7
-40.5
-39.1
-37.8
-36.7
-35.8
-35.0
-34.2
-33.8
-33.5
-33.3
-33.3
-33.3
-32.8
-32.2
-31.4
-30.7
-29.9
-29.1
-28.5
-27.6
-26.5
-25.4
-24.3
-23.0
-22.0
-20.9
-19.9
-18.8
-17.4
-16.0
-15.0
-14.2
-13.6
-12.6
-11.4
-10.1
-9.4
-9.0
-8.9
-8.6
-8.1
-7.5
-6.9
-6.6
-6.6
-7.0
-7.3
-7.3
-7.0
-6.7
-6.2
-5.8
-5.3
-4.8
-4.5
-4.7
-5.0
-5.9
-7.2
-8.6
-9.5
-10.1
-11.1
-12.5
-14.2
-15.9
-17.6
-19.2
-20.9
-22.6
-24.1
-25.5
-26.9
-28.3
-29.4
-30.5
-31.3
-32.1
-33.3
-34.7
-36.0
-37.2
-38.1
-39.1
-40.2
-41.2
-42.2
-42.8
-43.6
-44.5
-45.6
-46.4
-47.0
-47.8
-48.7
-49.8
-51.0
-52.4
-53.2
-53.4
-52.7
-52.0
-51.3
-50.9
-50.7
-50.7
-51.0
-51.2
-51.5
-51.8
-52.1
-52.3
-52.4
-52.4
-52.4
-52.4
-52.3
-51.8
-51.3
-51.0
-50.9
-50.7
-50.3
-49.6
-48.7
-47.6
-46.7
-46.1
-45.9
-46.1
-46.5
-46.8
-47.0
-46.8
-46.8
-47.3
-47.8
-47.9
-47.9
-48.1
-48.1
-48.2
-48.2
-48.1
-48.1
-48.1
-48.2
-48.4
-48.6
-48.6
-48.1
-47.3
-46.5
-45.9
-45.8
-45.8
-45.8
-45.9
-46.4
-47.0
-47.5
-47.9
-48.2
-48.7
-49.3
-49.8
-49.8
-49.3
-48.7
-48.1
-47.5
-47.5
-47.9
-48.7
-49.2
-49.2
-48.9
-48.6
-48.6
-48.4
-48.2
-47.8
-47.5
-47.5
-47.9
-48.4
-48.6
-48.6
-48.4
-47.9
-47.6
-47.5
-47.6
-48.1
-48.4
-48.7
-49.0
-49.3
-49.5
-49.2
-48.6
-48.2
-48.2
-48.4
-48.6
-48.4
-47.9
-47.5
-47.0
-46.4
-45.9
-45.6
-45.6
-45.8
-45.6
-45.4
-45.6
-46.2
-47.3
-48.1
-48.2
-47.9
-47.3
-47.0
-47.0
-47.0
-47.0
-46.7
-45.9
-45.0
-44.0
-43.4
-43.1
-43.0
-43.1
-43.3
-43.6
-44.0
-44.5
-45.0
-45.3
-45.3
-45.0
-44.7
-44.2
-43.7
-43.1
-42.5
-41.9
-41.6
-41.4
-41.2
-41.2
-41.1
-41.2
-41.4
-41.6
-41.2
-40.8
-40.8
-41.1
-41.7
-42.0
-42.2
-42.3
-42.6
-43.0
-43.3
-43.4
-43.4
-43.4
-43.7
-44.4
-45.0
-45.6
-46.2
-46.7
-47.0
-47.2
-47.3
-47.5
-47.5
-47.6
-47.9
-48.4
-49.0
-49.6
-49.6
-49.2
-48.4
-47.5
-46.7
-46.4
-45.8
-45.0
-44.0
-43.0
-41.9
-40.6
-39.2
-38.1
-37.5
-36.9
-36.3
-35.3
-33.9
-32.4
-30.4
-28.5
-26.9
-26.2
-25.7
-25.2
-24.4
-22.9
-20.9
-17.9
-14.5
-10.6
-6.4
-2.0
1.7
5.2
8.0
10.3
12.3
13.4
13.4
12.0
9.4
5.3
0.5
-4.8
-10.8
-16.7
-22.1
-26.6
-30.5
-33.8
-36.3
-38.4
-40.3
-42.2
-44.2
-46.4
-48.2
-49.9
-51.0
-51.7
-52.0
-52.3
-53.1
-53.8
-54.5
-54.8
-54.6
-54.0
-52.9
-52.3
-52.0
-52.1
-52.0
-51.3
-50.3
-48.4
-45.6
-41.6
-35.3
-26.2
-12.9
4.8
28.5
58.0
92.4
128.3
161.8
188.7
206.4
212.2
202.7
175.1
130.0
72.2
9.0
-52.7
-109.2
-157.4
-195.5
-223.2
-241.4
-251.3
-254.8
-252.7
-246.7
-237.2
-225.2
-211.5
-196.9
-182.0
-167.2
-152.6
-138.1
-124.1
-110.9
-99.1
-89.1
-81.1
-74.2
-68.5
-63.9
-60.7
-58.7
-57.6
-57.3
-57.3
-57.3
-56.8
-56.2
-55.4
-55.1
-54.9
-54.8
-54.1
-53.2
-51.8
-50.3
-48.4
-47.0
-46.4
-46.5
-46.5
-46.2
-45.8
-45.4
-45.0
-44.7
-44.5
-44.5
-44.7
-44.7
-44.8
-44.8
-44.5
-44.0
-43.4
-42.8
-42.2
-41.7
-41.6
-41.7
-42.2
-42.5
-42.6
-42.6
-42.8
-42.8
-42.5
-41.7
-40.6
-39.5
-39.1
-39.2
-39.7
-40.2
-40.3
-40.3
-40.2
-39.8
-39.4
-38.6
-37.8
-37.0
-36.1
-35.2
-34.1
-33.3
-32.8
-32.8
-32.8
-33.0
-32.7
-32.2
-31.8
-31.6
-31.3
-30.5
-29.6
-28.8
-28.0
-27.1
-26.0
-25.1
-24.0
-23.0
-22.3
-22.0
-21.8
-21.6
-21.2
-20.2
-19.3
-18.7
-18.2
-17.6
-16.7
-15.7
-14.5
-12.9
-10.8
-8.7
-7.3
-6.6
-5.8
-5.0
-4.4
-3.6
-2.7
-1.3
0.2
1.9
3.4
4.5
4.8
4.4
3.6
3.1
3.0
2.8
2.5
2.4
2.0
2.0
2.5
3.3
4.2
5.0
5.3
5.2
4.7
4.1
3.8
3.6
3.6
3.4
2.7
1.4
-0.2
-2.0
-4.1
-6.1
-7.8
-9.0
-10.4
-12.8
-16.4
-20.1
-23.0
-25.2
-26.8
-28.2
-29.7
-31.1
-32.4
-33.6
-34.9
-36.0
-36.6
-37.0
-37.7
-38.4
-39.2
-39.8
-40.8
-41.6
-42.5
-43.4
-44.5
-45.4
-45.9
-45.8
-45.6
-45.4
-45.8
-46.5
-47.6
-48.7
-49.5
-50.1
-50.7
-51.3
-52.0
-52.3
-52.1
-51.5
-50.7
-49.9
-49.6
-49.8
-50.1
-50.6
-50.9
-51.2
-51.2
-51.0
-50.7
-50.3
-49.3
-48.1
-46.7
-45.3
-44.2
-44.0
-44.5
-45.1
-45.6
-46.1
-46.2
-46.2
-46.1
-45.9
-45.6
-45.3
-45.3
-45.6
-45.9
-46.1
-45.9
-45.3
-44.4
-43.0
-41.6
-40.5
-40.2
-40.5
-41.1
-41.6
-41.6
-41.1
-40.8
-41.1
-41.4
-41.9
-42.2
-42.6
-43.1
-43.1
-42.6
-41.7
-40.9
-40.5
-40.3
-40.3
-40.3
-40.0
-39.2
-38.3
-37.5
-37.7
-38.4
-39.7
-40.6
-41.1
-41.4
-41.2
-41.2
-41.4
-41.6
-41.6
-41.6
-41.2
-40.8
-40.6
-40.9
-41.6
-42.2
-42.8
-43.1
-43.7
-44.4
-45.0
-45.0
-44.0
-42.6
-41.9
-42.0
-43.0
-43.9
-44.4
-44.4
-44.0
-43.6
-43.3
-43.1
-43.1
-42.8
-42.5
-42.3
-42.8
-43.4
-43.7
-43.7
-43.6
-43.1
-42.5
-41.7
-41.1
-41.2
-42.0
-42.8
-43.1
-42.8
-42.3
-41.9
-41.7
-41.7
-41.9
-42.0
-42.2
-42.2
-41.7
-41.1
-40.6
-40.9
-42.0
-43.3
-44.2
-45.0
-45.6
-46.4
-47.2
-47.6
-47.8
-47.9
-48.1
-47.6
-46.8
-45.9
-45.3
-44.8
-44.7
-44.5
-44.5
-44.7
-44.7
-44.5
-44.0
-43.6
-43.3
-43.0
-43.1
-43.4
-43.9
-44.2
-44.7
-45.0
-45.4
-45.6
-45.4
-45.1
-44.7
-44.4
-44.0
-43.7
-43.4
-42.6
-41.2
-39.7
-38.3
-37.4
-36.7
-36.6
-36.1
-35.5
-34.7
-33.8
-33.0
-32.1
-31.0
-30.2
-29.6
-29.1
-28.6
-28.0
-26.9
-24.8
-21.6
-17.9
-14.0
-10.1
-6.2
-2.5
1.0
3.9
6.2
8.0
9.5
10.6
10.9
10.1
8.0
4.5
0.3
-4.4
-9.4
-14.2
-18.7
-22.9
-26.9
-30.2
-32.8
-34.9
-36.7
-38.8
-41.2
-43.7
-45.8
-47.3
-48.4
-49.3
-50.3
-51.0
-51.7
-52.1
-52.9
-53.8
-54.8
-55.7
-56.6
-57.3
-58.0
-58.5
-59.0
-59.0
-58.0
-55.4
-51.3
-46.1
-39.7
-31.6
-20.6
-5.6
13.9
39.1
69.9
104.2
138.3
167.8
190.5
203.9
205.0
189.6
155.9
105.9
45.9
-17.0
-77.3
-131.3
-176.1
-210.1
-233.2
-246.2
-251.3
-250.6
-245.0
-235.6
-223.5
-209.5
-195.2
-181.1
-167.2
-153.8
-140.8
-128.8
-117.6
-107.0
-97.1
-88.1
-80.1
-73.7
-68.9
-65.5
-63.5
-62.5
-62.1
-61.6
-60.7
-59.7
-58.8
-58.3
-58.2
-58.3
-58.2
-57.4
-56.0
-54.5
-52.9
-52.0
-51.5
-51.7
-51.8
-51.7
-50.7
-49.6
-48.9
-48.4
-48.1
-48.1
-48.1
-47.8
-47.0
-46.2
-45.9
-46.1
-46.7
-47.0
-47.2
-47.2
-47.2
-47.3
-47.6
-48.1
-48.1
-47.5
-46.7
-46.1
-45.6
-44.8
-44.0
-43.0
-41.7
-40.6
-40.0
-40.3
-41.6
-43.0
-43.7
-43.7
-42.8
-41.9
-41.1
-40.8
-40.8
-40.9
-40.6
-40.2
-39.4
-38.6
-38.1
-37.8
-37.7
-37.5
-37.2
-36.7
-36.1
-35.2
-34.2
-33.3
-32.7
-32.2
-32.1
-31.9
-31.8
-31.6
-31.3
-30.8
-30.0
-28.8
-27.4
-26.3
-25.7
-25.4
-25.1
-24.4
-23.7
-22.4
-20.9
-19.2
-17.4
-15.7
-13.9
-12.2
-10.9
-10.0
-9.2
-8.1
-6.7
-5.3
-4.4
-3.6
-2.7
-1.7
-1.0
-0.6
-0.3
-0.2
0.0
0.3
0.6
1.1
1.7
2.5
3.3
3.9
4.4
4.8
5.0
4.5
3.6
2.7
2.0
1.4
0.6
-0.3
-1.0
-1.3
-1.7
-3.0
-5.0
-7.5
-10.0
-11.8
-13.4
-15.0
-16.5
-18.2
-19.9
-21.6
-23.4
-24.9
-26.2
-27.2
-28.5
-29.4
-30.4
-31.4
-32.7
-33.9
-35.3
-36.4
-37.5
-38.4
-39.8
-41.4
-43.3
-44.7
-45.6
-46.1
-46.7
-47.2
-47.5
-47.6
-47.8
-47.9
-47.9
-47.9
-48.1
-48.4
-49.0
-49.8
-50.7
-51.7
-52.3
-52.6
-52.4
-52.1
-51.8
-52.0
-52.4
-53.1
-53.8
-54.5
-54.6
-54.1
-53.4
-52.3
-51.3
-50.6
-50.3
-50.1
-49.9
-49.6
-49.5
-49.3
-49.5
-49.9
-50.4
-50.3
-49.6
-48.9
-48.2
-47.8
-47.8
-47.9
-48.7
-49.8
-51.2
-51.7
-51.3
-50.3
-49.3
-48.6
-47.8
-47.2
-46.8
-46.7
-46.7
-46.4
-45.9
-45.3
-44.5
-43.7
-43.6
-43.9
-44.2
-44.2
-44.0
-43.7
-43.6
-43.6
-43.4
-43.3
-43.1
-43.3
-43.7
-44.4
-45.0
-45.6
-46.2
-47.0
-47.5
-47.2
-45.9
-44.4
-43.0
-42.3
-42.6
-43.7
-44.8
-45.6
-45.9
-45.8
-45.3
-44.8
-44.2
-43.9
-43.6
-43.6
-44.0
-44.8
-45.9
-46.8
-47.5
-47.9
-48.1
-48.1
-48.1
-48.1
-47.6
-47.0
-46.4
-45.6
-45.0
-44.2
-43.9
-43.7
-43.9
-44.2
-44.8
-45.6
-46.5
-47.3
-48.1
-48.7
-49.0
-48.7
-48.1
-47.5
-47.2
-47.0
-47.0
-47.2
-47.3
-47.6
-47.6
-47.5
-46.8
-46.1
-45.3
-44.8
-44.7
-44.8
-45.3
-45.9
-46.5
-47.2
-48.1
-48.9
-49.6
-49.9
-49.6
-48.9
-48.1
-47.5
-47.0
-46.8
-46.8
-46.8
-46.8
-47.0
-47.3
-48.1
-49.0
-49.8
-50.4
-50.9
-51.2
-51.3
-51.0
-50.6
-49.8
-49.2
-48.7
-47.9
-47.3
-46.7
-46.7
-47.2
-47.9
-48.6
-49.3
-49.8
-50.1
-50.6
-51.0
-51.2
-51.0
-50.6
-49.8
-49.2
-48.6
-47.9
-47.2
-46.5
-46.1
-45.4
-44.7
-43.7
-43.0
-42.3
-41.7
-41.1
-40.6
-40.0
-39.2
-38.1
-37.2
-36.4
-35.6
-34.6
-33.0
-31.6
-30.7
-29.7
-28.3
-26.2
-23.4
-19.8
-16.0
-12.6
-9.8
-7.6
-5.8
-3.9
-2.0
-0.2
1.4
2.0
1.1
-1.0
-4.5
-9.0
-14.3
-19.8
-25.1
-30.0
-34.6
-38.4
-41.7
-44.2
-46.1
-47.9
-49.9
-52.1
-54.3
-56.3
-58.2
-59.4
-60.4
-60.8
-61.3
-61.5
-61.3
-60.7
-59.7
-59.0
-59.0
-59.9
-61.3
-62.7
-63.6
-63.8
-63.0
-61.3
-57.9
-53.1
-47.2
-39.7
-29.6
-15.6
3.3
27.6
57.3
90.7
124.6
155.1
179.7
196.0
201.1
191.2
164.1
121.0
67.5
10.0
-46.1
-97.2
-140.6
-175.1
-200.5
-217.1
-226.3
-229.6
-228.0
-222.7
-214.5
-203.9
-191.9
-179.0
-165.8
-152.0
-137.7
-123.8
-111.1
-99.7
-90.1
-82.0
-75.3
-70.3
-66.9
-64.7
-63.3
-62.5
-61.8
-60.7
-59.6
-58.8
-58.7
-58.7
-58.7
-58.5
-58.2
-57.7
-57.3
-56.5
-55.5
-54.8
-54.1
-53.7
-53.7
-53.7
-53.7
-53.4
-52.9
-52.7
-52.6
-52.6
-52.4
-52.0
-51.3
-50.6
-49.8
-49.0
-48.4
-48.1
-48.4
-48.9
-49.2
-49.2
-48.9
-48.4
-47.9
-47.6
-47.5
-47.8
-48.2
-48.4
-48.4
-48.1
-47.6
-47.5
-47.5
-47.5
-47.3
-47.0
-46.5
-45.9
-45.3
-44.7
-44.0
-43.4
-43.3
-43.0
-42.8
-42.6
-42.3
-42.0
-41.1
-40.0
-39.1
-38.6
-38.3
-38.0
-37.7
-37.5
-37.5
-37.5
-36.9
-35.8
-34.2
-32.7
-31.4
-30.5
-30.0
-30.0
-30.0
-30.2
-30.0
-29.7
-29.1
-28.3
-27.6
-26.8
-26.2
-25.7
-25.1
-24.4
-23.7
-22.6
-21.3
-19.9
-18.2
-16.7
-15.1
-13.9
-12.6
-11.2
-9.5
-8.0
-6.9
-6.1
-5.5
-5.3
-5.2
-4.8
-4.5
-4.1
-3.8
-3.6
-3.6
-3.8
-3.9
-3.6
-3.1
-2.7
-2.4
-2.5
-3.0
-3.8
-4.7
-5.6
-6.4
-7.2
-7.8
-8.4
-9.2
-10.3
-11.4
-12.3
-13.2
-14.3
-15.9
-17.4
-19.5
-21.8
-24.1
-26.3
-28.6
-30.7
-32.4
-33.3
-33.5
-33.5
-33.9
-34.9
-35.8
-36.4
-36.6
-36.9
-37.4
-38.4
-39.8
-41.4
-42.8
-43.7
-44.7
-45.4
-46.2
-46.8
-47.6
-48.2
-48.7
-49.2
-49.5
-49.5
-49.3
-49.2
-49.2
-49.5
-49.9
-50.3
-50.4
-49.9
-49.5
-49.0
-48.7
-48.7
-49.0
-49.5
-49.9
-50.3
-50.1
-49.5
-48.6
-48.1
-48.4
-49.2
-49.8
-50.3
-50.3
-49.9
-49.6
-49.3
-49.2
-49.2
-49.0
-48.6
-47.9
-47.3
-47.0
-46.8
-47.0
-47.0
-46.8
-46.5
-46.4
-46.4
-46.4
-46.1
-45.6
-45.0
-44.7
-44.2
-43.7
-43.4
-43.3
-43.4
-43.7
-43.9
-43.9
-43.7
-43.4
-43.0
-42.6
-42.5
-42.5
-42.8
-43.3
-44.0
-45.1
-45.9
-46.2
-45.9
-45.3
-44.5
-43.6
-42.8
-42.5
-43.0
-44.0
-45.1
-45.8
-45.8
-45.1
-44.4
-43.4
-42.6
-42.0
-41.9
-41.7
-42.2
-43.1
-44.0
-44.5
-44.4
-44.0
-43.7
-43.4
-43.0
-42.8
-42.8
-43.1
-43.3
-43.3
-43.3
-43.1
-43.1
-43.4
-43.9
-44.4
-44.7
-45.0
-45.1
-45.1
-45.1
-45.0
-45.1
-45.3
-45.8
-46.2
-46.8
-47.0
-46.5
-46.1
-45.8
-45.6
-45.4
-45.3
-45.3
-45.3
-45.4
-45.6
-45.6
-45.6
-45.4
-45.6
-45.9
-45.9
-45.8
-45.4
-45.1
-45.0
-44.5
-43.9
-43.3
-42.8
-42.8
-43.0
-43.1
-43.4
-43.9
-44.2
-44.5
-44.7
-45.0
-45.3
-45.6
-45.6
-45.3
-44.7
-44.5
-44.7
-45.1
-45.6
-45.8
-45.3
-44.4
-43.1
-41.9
-40.9
-40.8
-41.4
-42.5
-43.7
-44.5
-44.7
-44.0
-43.0
-42.2
-42.0
-42.2
-42.2
-41.9
-41.7
-41.6
-41.9
-42.2
-42.6
-42.8
-43.0
-42.8
-42.6
-42.3
-42.2
-41.7
-41.1
-40.5
-40.0
-40.0
-40.5
-40.9
-41.1
-40.9
-40.5
-39.7
-38.9
-38.0
-36.9
-35.8
-34.9
-34.1
-33.2
-32.1
-31.0
-29.9
-29.0
-27.7
-26.2
-24.1
-22.3
-20.9
-20.4
-20.2
-20.2
-19.9
-18.8
-16.8
-13.7
-9.8
-5.8
-2.0
0.8
3.0
4.8
6.4
7.8
8.9
9.7
9.5
8.1
5.3
1.1
-4.1
-10.1
-16.0
-21.2
-25.7
-29.6
-32.4
-34.4
-35.6
-36.9
-38.4
-40.5
-42.6
-44.5
-46.1
-47.8
-49.5
-51.0
-52.1
-52.7
-53.1
-53.2
-53.7
-54.6
-55.9
-56.9
-57.7
-57.7
-57.4
-56.8
-55.5
-53.5
-50.4
-45.8
-39.7
-31.6
-20.7
-6.2
12.5
36.6
66.3
99.6
132.7
161.8
184.2
197.9
200.5
188.4
159.1
114.2
59.4
1.7
-53.2
-102.5
-143.9
-176.2
-199.9
-215.7
-224.9
-228.5
-227.2
-221.6
-212.8
-201.4
-188.5
-174.8
-160.4
-145.4
-130.4
-116.0
-103.4
-93.0
-84.9
-78.9
-74.8
-72.2
-70.3
-68.9
-67.5
-66.1
-65.2
-64.6
-64.6
-65.0
-65.7
-65.8
-65.5
-64.6
-63.3
-62.2
-61.3
-60.4
-59.4
-58.5
-57.7
-56.8
-55.9
-55.1
-54.3
-53.8
-53.5
-53.4
-53.4
-53.2
-53.2
-53.5
-53.7
-53.8
-53.8
-53.4
-52.4
-51.7
-51.2
-51.3
-51.7
-52.1
-52.7
-53.4
-53.8
-54.0
-53.2
-51.7
-49.6
-48.2
-47.5
-47.2
-47.0
-46.7
-46.5
-46.4
-46.2
-45.9
-45.4
-45.1
-45.0
-44.7
-44.4
-43.7
-43.4
-43.6
-43.9
-44.4
-44.2
-43.7
-43.3
-42.8
-42.3
-41.6
-40.6
-39.7
-38.8
-38.0
-37.4
-36.7
-35.8
-34.7
-33.8
-32.8
-32.1
-31.1
-30.4
-29.7
-29.4
-29.0
-28.5
-27.7
-26.9
-26.2
-25.1
-24.1
-23.2
-22.4
-22.1
-21.6
-20.9
-19.8
-18.7
-18.1
-17.6
-16.8
-15.7
-14.5
-13.2
-12.2
-11.2
-10.1
-9.4
-8.9
-8.3
-7.5
-6.7
-6.6
-6.7
-6.9
-7.0
-7.0
-6.6
-5.6
-4.8
-4.2
-3.9
-3.9
-4.1
-4.7
-5.3
-5.6
-5.6
-5.2
-5.0
-5.0
-5.6
-6.7
-8.1
-9.8
-11.4
-12.9
-14.2
-15.1
-16.2
-17.4
-19.0
-20.7
-22.4
-24.4
-26.2
-27.9
-29.4
-30.8
-32.7
-34.7
-36.6
-37.7
-38.1
-38.4
-38.9
-40.0
-41.6
-43.1
-44.5
-45.1
-45.4
-45.4
-45.6
-45.6
-45.6
-45.4
-45.1
-44.8
-44.5
-44.7
-45.3
-46.2
-47.3
-48.4
-49.2
-49.8
-50.1
-49.9
-49.6
-49.3
-49.5
-49.9
-50.3
-50.1
-49.6
-49.0
-48.4
-48.1
-47.8
-47.3
-47.0
-47.0
-47.2
-47.5
-47.6
-47.9
-48.2
-48.9
-49.3
-49.6
-49.5
-48.7
-47.9
-47.3
-46.5
-45.6
-44.4
-43.1
-42.3
-42.2
-42.3
-42.3
-42.0
-41.9
-42.2
-43.0
-43.4
-43.9
-44.5
-45.3
-46.1
-46.5
-46.5
-46.5
-46.4
-46.5
-47.0
-47.3
-47.6
-47.5
-47.0
-46.1
-45.1
-44.5
-44.0
-43.7
-43.6
-43.6
-43.6
-43.6
-43.3
-42.6
-42.0
-41.4
-40.9
-40.9
-40.9
-41.2
-41.6
-41.9
-42.3
-42.8
-43.1
-43.1
-43.0
-43.0
-43.4
-44.2
-45.1
-45.9
-46.2
-46.5
-46.4
-46.1
-45.4
-44.8
-44.7
-44.4
-43.9
-43.3
-43.0
-42.8
-43.0
-43.0
-43.1
-43.1
-43.1
-43.1
-42.8
-42.5
-42.0
-41.6
-41.2
-40.9
-41.1
-41.4
-41.6
-41.6
-41.2
-40.9
-40.8
-40.8
-41.1
-41.7
-42.2
-42.5
-42.6
-42.3
-41.6
-40.9
-40.9
-41.4
-41.6
-41.1
-40.5
-39.8
-39.4
-38.8
-38.0
-37.4
-37.0
-37.0
-37.2
-37.4
-37.4
-37.7
-38.3
-39.2
-39.8
-40.2
-40.2
-40.3
-40.5
-40.3
-39.7
-39.2
-39.1
-39.4
-39.8
-40.3
-40.3
-40.0
-39.1
-38.3
-37.7
-37.5
-37.5
-37.8
-38.1
-38.8
-39.4
-40.0
-40.5
-41.1
-41.6
-42.2
-42.5
-42.3
-41.9
-41.1
-40.3
-40.0
-40.2
-40.5
-40.8
-40.8
-40.6
-40.2
-39.8
-39.4
-39.5
-39.8
-40.3
-40.6
-40.8
-40.6
-40.3
-40.0
-39.5
-38.8
-38.1
-37.8
-37.4
-36.6
-35.2
-33.8
-32.7
-31.9
-31.3
-30.5
-29.7
-29.0
-28.5
-28.5
-28.5
-28.3
-27.4
-25.8
-24.0
-22.0
-19.8
-17.8
-16.0
-14.6
-13.2
-11.5
-8.9
-5.6
-1.9
1.4
4.2
6.7
9.0
11.2
12.9
13.6
13.2
12.0
9.8
6.4
1.3
-5.0
-12.0
-18.7
-24.3
-28.5
-31.3
-33.3
-34.9
-36.4
-38.3
-40.5
-42.8
-45.1
-47.3
-49.0
-50.3
-51.3
-52.3
-53.1
-53.7
-54.0
-54.0
-53.8
-54.1
-54.8
-55.4
-55.9
-56.0
-55.7
-54.8
-53.1
-50.7
-47.8
-43.9
-38.4
-30.5
-19.0
-3.3
16.8
42.6
73.6
107.8
140.9
169.1
189.9
201.1
199.7
182.5
147.9
98.9
41.7
-17.1
-73.0
-122.3
-163.0
-194.0
-215.4
-228.3
-234.2
-234.7
-230.8
-223.5
-213.7
-202.0
-189.3
-175.3
-160.5
-145.3
-130.0
-115.7
-103.1
-92.3
-83.4
-76.7
-71.7
-68.5
-66.1
-64.4
-63.5
-62.7
-62.1
-61.5
-60.7
-60.1
-59.6
-59.1
-58.8
-58.2
-57.4
-56.8
-56.2
-55.5
-55.2
-54.9
-54.8
-54.8
-54.6
-53.8
-52.7
-51.5
-50.7
-50.1
-50.1
-50.3
-50.6
-50.6
-50.3
-49.5
-48.6
-47.8
-47.2
-46.8
-46.8
-47.0
-47.2
-47.2
-46.8
-46.2
-45.3
-44.4
-43.4
-42.6
-42.3
-42.2
-42.2
-42.5
-42.6
-42.2
-41.6
-40.9
-40.3
-40.0
-39.7
-39.5
-39.1
-38.8
-38.4
-38.1
-37.7
-37.4
-37.2
-37.2
-37.0
-36.7
-36.3
-35.8
-35.0
-34.2
-33.3
-32.4
-31.4
-31.0
-30.7
-30.7
-30.8
-30.8
-30.8
-30.8
-30.5
-29.7
-28.3
-26.6
-25.2
-24.8
-25.1
-25.5
-25.2
-24.3
-23.0
-21.8
-20.6
-19.8
-19.3
-18.7
-17.8
-16.7
-15.4
-14.2
-13.1
-11.7
-10.4
-9.2
-8.0
-6.7
-5.6
-4.7
-4.1
-3.6
-3.4
-3.1
-2.4
-1.6
-0.5
0.2
1.0
1.6
1.9
1.7
1.4
1.1
0.8
1.0
1.3
1.4
1.1
0.5
0.0
-0.8
-1.9
-3.3
-4.7
-6.1
-7.6
-9.2
-10.6
-12.0
-13.4
-14.6
-15.9
-17.1
-18.8
-20.7
-22.1
-22.9
-23.4
-24.0
-25.1
-26.5
-28.0
-29.4
-30.8
-32.2
-33.3
-34.2
-35.2
-36.3
-37.2
-38.3
-39.2
-40.0
-40.5
-40.5
-40.5
-40.5
-40.8
-40.9
-41.1
-41.4
-42.0
-43.1
-44.2
-45.3
-46.1
-46.5
-47.0
-47.6
-47.9
-48.1
-47.8
-47.3
-46.7
-46.2
-46.1
-46.4
-47.0
-47.6
-48.2
-48.6
-48.7
-48.9
-49.0
-49.0
-48.9
-48.6
-48.6
-48.9
-49.3
-49.5
-49.5
-49.2
-49.2
-49.2
-49.3
-49.5
-49.5
-49.2
-48.9
-49.0
-49.6
-50.6
-50.9
-50.9
-50.6
-50.4
-50.3
-50.3
-50.1
-49.8
-49.6
-49.6
-49.9
-50.3
-50.6
-50.4
-49.9
-49.2
-48.6
-48.4
-48.2
-47.9
-47.0
-46.2
-46.1
-46.7
-47.5
-48.1
-48.4
-48.7
-48.7
-48.7
-48.6
-48.4
-48.1
-47.9
-47.8
-47.8
-47.6
-47.3
-46.8
-46.4
-46.1
-46.1
-46.2
-46.7
-47.2
-47.6
-47.9
-47.9
-47.6
-47.0
-46.8
-47.0
-47.3
-47.5
-47.2
-46.5
-45.6
-44.7
-44.4
-44.7
-45.3
-45.9
-46.2
-46.5
-46.7
-47.0
-47.2
-47.3
-47.3
-47.5
-47.8
-48.2
-48.7
-48.7
-48.4
-47.8
-47.3
-47.2
-47.3
-47.6
-47.6
-47.3
-47.2
-47.3
-47.3
-47.5
-47.5
-47.5
-47.5
-47.5
-47.3
-47.3
-47.0
-46.8
-46.7
-47.0
-47.5
-47.8
-47.8
-48.1
-48.4
-48.7
-48.9
-48.9
-48.7
-48.6
-48.4
-48.1
-47.8
-47.3
-46.8
-46.4
-46.2
-45.9
-45.6
-44.8
-43.7
-42.6
-41.7
-41.2
-41.4
-41.9
-42.6
-43.1
-43.3
-42.5
-41.4
-40.3
-40.0
-40.5
-41.2
-42.2
-43.0
-43.4
-43.9
-44.4
-45.1
-45.6
-45.9
-45.9
-45.8
-45.4
-44.8
-44.2
-43.7
-43.7
-44.0
-44.7
-45.0
-44.8
-44.4
-43.6
-43.0
-42.6
-42.6
-42.6
-42.8
-42.5
-42.0
-41.1
-40.0
-39.1
-38.4
-37.8
-37.0
-36.3
-35.8
-35.3
-34.7
-33.9
-33.0
-32.4
-32.1
-31.6
-30.7
-29.6
-28.2
-27.1
-26.0
-25.2
-24.4
-23.4
-21.5
-18.8
-15.3
-11.1
-6.7
-2.7
0.6
3.8
6.2
8.3
9.8
10.9
11.4
10.9
9.0
6.2
2.7
-1.7
-6.9
-12.6
-18.5
-24.1
-28.6
-32.2
-34.9
-36.9
-38.9
-40.9
-43.1
-45.3
-47.6
-49.8
-51.8
-53.4
-54.6
-55.7
-56.3
-56.9
-57.4
-58.2
-58.7
-59.1
-59.3
-59.1
-58.7
-58.2
-57.9
-57.6
-56.9
-55.9
-53.5
-49.9
-44.4
-36.4
-25.4
-10.1
9.5
34.6
64.6
98.2
131.8
161.6
184.6
198.8
200.8
187.1
155.4
107.5
49.2
-12.3
-71.1
-123.0
-166.1
-199.1
-222.6
-237.4
-245.0
-246.7
-243.6
-236.3
-225.7
-212.9
-199.1
-185.4
-172.0
-158.5
-144.7
-130.5
-116.8
-104.2
-93.2
-84.0
-77.0
-72.2
-68.8
-66.3
-64.4
-63.2
-62.7
-62.5
-62.9
-63.2
-63.3
-63.5
-63.3
-62.9
-61.9
-61.1
-60.4
-59.7
-59.0
-58.3
-57.6
-56.3
-54.9
-53.5
-52.7
-52.3
-52.3
-52.3
-52.1
-51.8
-51.3
-51.0
-50.9
-50.7
-50.6
-50.3
-49.6
-49.0
-48.2
-47.6
-47.3
-47.5
-47.9
-48.4
-48.9
-49.0
-48.6
-47.6
-46.5
-45.8
-45.4
-45.3
-45.3
-45.3
-45.4
-45.3
-45.0
-44.4
-43.9
-43.3
-42.8
-42.3
-42.2
-42.3
-42.5
-42.8
-43.1
-43.7
-44.4
-44.7
-44.7
-44.4
-43.6
-42.6
-41.2
-40.0
-39.1
-38.4
-38.0
-37.7
-37.2
-36.6
-35.8
-35.2
-34.7
-34.2
-33.6
-33.0
-32.5
-31.9
-30.4
-28.3
-26.0
-23.8
-22.1
-20.4
-19.2
-18.4
-18.1
-17.9
-17.6
-17.0
-16.0
-15.0
-13.9
-12.5
-11.1
-10.0
-9.5
-9.7
-10.1
-10.3
-10.0
-9.4
-8.3
-6.9
-5.6
-4.5
-3.9
-3.6
-3.8
-3.6
-3.1
-2.4
-1.4
-0.8
-0.6
-1.0
-1.7
-2.7
-3.3
-3.6
-4.1
-4.8
-5.8
-6.9
-8.0
-8.7
-9.8
-10.8
-11.8
-12.9
-14.0
-15.3
-16.7
-18.2
-19.9
-21.5
-22.9
-24.3
-25.2
-26.0
-27.1
-28.5
-30.2
-31.6
-32.8
-33.9
-35.2
-36.6
-38.0
-39.1
-39.7
-40.2
-40.8
-41.6
-42.8
-43.9
-44.8
-45.4
-45.9
-46.4
-47.0
-47.8
-48.4
-48.7
-48.6
-48.2
-47.8
-47.5
-47.2
-47.0
-46.8
-47.2
-47.9
-49.0
-50.3
-51.3
-52.0
-51.8
-51.0
-50.1
-49.2
-48.2
-47.8
-47.6
-47.8
-47.8
-47.5
-47.2
-46.7
-46.1
-45.4
-45.1
-45.0
-45.0
-44.8
-44.4
-43.7
-43.3
-43.0
-42.8
-43.0
-43.4
-43.7
-43.9
-44.5
-45.1
-45.6
-46.1
-46.1
-45.9
-45.4
-45.1
-44.5
-43.7
-42.6
-41.6
-40.5
-39.7
-39.4
-39.4
-39.7
-39.7
-39.7
-39.4
-38.9
-38.9
-39.4
-40.0
-40.6
-40.8
-40.6
-40.0
-39.2
-38.4
-38.0
-37.8
-37.7
-37.7
-37.8
-38.1
-38.6
-39.1
-39.7
-40.5
-41.2
-41.7
-42.0
-41.9
-41.2
-40.6
-40.0
-39.8
-39.7
-39.7
-39.5
-39.2
-39.1
-38.9
-38.8
-38.4
-38.1
-37.7
-37.2
-36.7
-36.4
-36.4
-36.7
-37.4
-38.4
-40.0
-41.7
-42.5
-42.5
-41.4
-40.0
-38.6
-37.8
-37.7
-37.5
-37.2
-36.7
-36.6
-36.9
-37.7
-38.4
-38.9
-38.8
-38.3
-38.0
-37.7
-37.7
-37.5
-37.5
-37.4
-37.5
-37.7
-38.0
-38.4
-38.6
-38.1
-37.5
-36.9
-36.7
-36.9
-36.9
-37.0
-37.0
-37.2
-37.2
-37.2
-37.0
-36.9
-37.2
-37.7
-38.0
-38.3
-38.3
-38.1
-37.5
-36.7
-36.3
-36.3
-36.4
-36.9
-37.0
-36.9
-36.9
-37.0
-37.4
-37.4
-37.4
-37.5
-38.4
-39.7
-41.1
-41.7
-41.7
-41.4
-40.8
-40.3
-39.7
-38.9
-38.3
-37.8
-37.4
-37.0
-36.9
-36.6
-36.1
-35.3
-34.6
-33.8
-32.8
-32.1
-30.8
-29.6
-28.6
-27.7
-27.1
-26.3
-25.2
-23.8
-22.3
-20.9
-19.8
-19.0
-18.1
-16.7
-14.3
-10.9
-6.9
-2.4
1.7
5.5
8.6
11.1
13.1
14.8
16.2
17.0
17.1
16.2
14.2
10.9
6.9
1.9
-3.6
-9.5
-15.1
-19.8
-23.7
-27.1
-30.2
-32.7
-34.9
-37.0
-39.7
-42.6
-45.3
-47.5
-49.0
-49.9
-50.4
-50.4
-50.3
-50.3
-50.4
-50.9
-51.3
-51.3
-51.0
-50.6
-50.4
-50.1
-49.6
-48.9
-47.5
-45.1
-41.6
-36.6
-29.6
-20.1
-6.6
11.1
33.9
62.2
95.7
131.6
165.5
193.2
212.0
219.5
212.5
187.6
144.5
87.4
23.2
-41.2
-100.6
-151.8
-192.9
-222.9
-242.5
-252.6
-255.2
-252.0
-244.5
-233.8
-220.9
-207.0
-192.4
-177.5
-162.4
-147.9
-134.6
-122.3
-110.8
-100.0
-89.9
-80.9
-73.3
-67.2
-62.4
-58.7
-56.0
-54.5
-53.5
-52.7
-51.7
-50.6
-49.6
-49.2
-49.0
-49.0
-48.9
-48.2
-47.3
-46.1
-44.8
-43.4
-42.5
-42.2
-42.6
-43.1
-43.4
-43.1
-42.6
-41.9
-41.2
-40.9
-40.6
-40.6
-40.5
-40.3
-40.5
-40.3
-40.2
-39.7
-39.2
-38.6
-38.0
-37.2
-36.4
-35.8
-35.5
-35.8
-36.3
-36.9
-37.8
-38.8
-39.4
-39.5
-39.1
-38.1
-37.2
-36.4
-35.8
-35.5
-35.2
-34.9
-34.6
-33.9
-33.2
-32.7
-32.5
-32.4
-32.4
-32.4
-32.5
-32.4
-31.8
-30.8
-30.0
-29.4
-28.6
-27.9
-27.1
-26.5
-25.8
-25.4
-24.9
-24.4
-23.8
-23.0
-22.3
-21.5
-20.6
-19.8
-18.8
-18.1
-17.4
-17.1
-17.0
-16.8
-16.2
-15.3
-14.2
-12.8
-11.4
-10.3
-9.8
-9.7
-9.4
-8.6
-7.3
-6.2
-5.0
-3.6
-1.7
0.2
2.0
3.3
4.1
4.8
5.6
6.6
7.2
7.5
7.6
7.8
7.8
8.0
8.3
8.9
9.2
9.5
9.8
10.1
10.4
10.4
10.1
9.2
8.1
6.9
5.6
4.2
3.0
1.9
1.1
0.0
-1.4
-3.4
-5.9
-8.3
-10.3
-12.0
-13.7
-15.6
-17.6
-19.8
-22.0
-23.7
-24.9
-25.8
-27.1
-29.1
-31.4
-33.5
-35.0
-36.4
-38.0
-39.4
-40.6
-41.2
-41.6
-41.7
-41.9
-42.5
-43.3
-44.4
-45.4
-46.5
-47.8
-49.0
-50.6
-52.1
-53.7
-54.9
-55.5
-55.5
-55.2
-54.9
-54.6
-54.5
-54.5
-54.3
-54.0
-53.4
-52.6
-51.8
-51.5
-51.7
-52.1
-52.4
-52.6
-52.6
-52.3
-52.0
-51.8
-52.0
-52.3
-52.7
-53.2
-53.2
-52.9
-52.3
-51.8
-51.5
-51.2
-51.0
-51.0
-51.2
-51.2
-51.0
-50.9
-50.4
-49.8
-48.9
-47.9
-47.2
-47.0
-47.3
-47.9
-48.4
-48.7
-48.6
-48.1
-47.6
-46.8
-46.2
-45.8
-45.4
-45.6
-45.6
-45.8
-45.9
-46.1
-46.2
-46.4
-46.2
-45.6
-44.7
-43.7
-43.6
-43.7
-43.7
-43.6
-43.3
-43.3
-43.6
-44.0
-44.7
-45.1
-45.9
-47.0
-48.2
-49.2
-49.6
-49.3
-48.6
-47.5
-46.5
-46.2
-46.4
-46.8
-47.2
-46.8
-46.2
-46.1
-46.7
-47.6
-48.4
-48.7
-48.6
-48.2
-47.8
-47.5
-47.2
-46.7
-45.9
-45.1
-44.7
-44.2
-44.2
-44.4
-44.7
-44.7
-44.5
-44.4
-44.7
-45.0
-45.1
-45.0
-44.8
-45.0
-45.6
-46.2
-46.7
-46.5
-45.9
-45.3
-44.8
-44.7
-44.8
-45.3
-45.6
-45.9
-45.9
-45.4
-44.8
-44.2
-43.9
-43.9
-43.7
-43.6
-43.3
-43.0
-42.5
-42.3
-42.2
-42.2
-42.2
-42.6
-43.6
-44.5
-45.3
-45.3
-45.3
-45.4
-45.9
-45.8
-45.0
-43.6
-42.5
-41.7
-41.4
-41.7
-42.3
-42.8
-42.8
-42.3
-41.9
-41.6
-41.4
-41.4
-41.9
-42.6
-43.6
-43.9
-44.0
-44.0
-43.7
-43.0
-41.9
-40.6
-39.1
-37.8
-37.0
-36.9
-36.9
-36.7
-36.1
-35.2
-33.9
-32.7
-31.4
-30.4
-29.3
-28.2
-27.2
-26.2
-25.2
-24.6
-24.0
-22.7
-20.7
-17.9
-14.2
-10.1
-5.9
-2.5
0.0
2.2
3.9
5.3
6.2
6.7
6.4
5.0
2.5
-0.2
-3.8
-8.4
-14.2
-20.6
-26.3
-31.1
-34.9
-37.7
-39.8
-41.9
-43.6
-45.3
-47.2
-49.3
-51.5
-53.5
-55.2
-56.5
-57.4
-57.7
-57.4
-57.3
-57.1
-57.3
-57.3
-57.3
-57.1
-56.6
-56.3
-56.2
-55.9
-54.6
-52.4
-49.2
-44.8
-39.2
-31.4
-20.9
-6.4
12.8
37.2
67.1
100.8
135.0
165.7
189.3
203.4
205.3
191.0
158.3
109.5
50.7
-10.6
-68.8
-120.2
-163.5
-197.4
-221.8
-236.9
-244.0
-244.7
-239.8
-230.7
-218.1
-203.8
-188.8
-174.2
-160.2
-146.8
-134.2
-122.4
-111.5
-101.6
-92.4
-84.6
-78.1
-73.1
-69.2
-66.4
-64.1
-62.2
-60.5
-58.8
-57.3
-56.2
-55.4
-54.9
-54.8
-54.3
-53.8
-53.4
-52.9
-52.3
-51.8
-51.5
-51.3
-50.9
-50.1
-49.3
-48.6
-47.9
-47.6
-47.8
-48.4
-49.2
-49.3
-48.9
-48.1
-47.0
-46.2
-46.2
-46.7
-47.2
-47.3
-46.8
-46.2
-45.6
-45.1
-44.8
-44.7
-44.5
-44.4
-43.9
-43.1
-42.2
-41.4
-40.8
-40.6
-41.1
-41.9
-42.3
-42.6
-42.3
-41.7
-40.9
-40.3
-40.0
-40.0
-39.8
-39.5
-39.2
-39.1
-38.9
-38.8
-38.4
-38.3
-38.0
-37.5
-37.2
-37.0
-37.4
-38.0
-38.1
-37.8
-37.0
-36.0
-34.7
-33.5
-32.1
-30.5
-29.0
-27.7
-26.6
-25.8
-25.5
-25.2
-24.8
-24.0
-23.5
-22.9
-21.8
-20.2
-18.7
-17.6
-17.1
-16.7
-16.4
-15.7
-14.8
-14.0
-13.1
-12.2
-10.9
-9.5
-8.1
-7.0
-6.2
-5.6
-4.7
-3.8
-2.7
-1.7
-0.6
0.0
0.5
0.6
0.6
0.2
0.0
-0.3
-0.5
-0.5
-0.8
-1.3
-1.9
-2.7
-3.3
-3.8
-4.4
-4.8
-5.5
-5.9
-6.4
-7.0
-8.0
-9.2
-11.2
-13.9
-17.0
-20.2
-23.2
-25.5
-27.1
-27.9
-28.2
-28.2
-28.0
-28.2
-28.8
-29.7
-30.7
-31.4
-31.9
-32.7
-33.8
-34.9
-36.1
-37.4
-38.6
-39.8
-40.9
-42.2
-43.3
-44.4
-45.3
-46.2
-46.8
-47.2
-46.7
-45.9
-45.0
-44.0
-43.3
-42.8
-42.8
-43.3
-44.0
-45.0
-45.8
-46.5
-47.0
-47.6
-48.1
-48.2
-48.4
-48.4
-48.7
-49.2
-49.5
-49.8
-50.1
-50.4
-50.7
-50.6
-49.8
-48.6
-47.6
-47.3
-47.3
-47.3
-46.8
-45.9
-45.0
-44.4
-43.9
-43.6
-43.4
-43.4
-43.7
-44.0
-44.2
-44.2
-44.0
-44.0
-43.9
-43.6
-43.6
-43.9
-44.4
-44.8
-44.8
-44.5
-43.9
-43.0
-42.2
-41.6
-41.2
-41.4
-41.6
-41.7
-41.6
-41.2
-40.8
-40.2
-39.5
-39.2
-39.1
-39.1
-38.8
-38.3
-37.8
-37.7
-37.8
-38.0
-38.3
-38.3
-38.1
-38.0
-37.8
-38.0
-38.3
-38.9
-39.8
-40.5
-40.5
-40.2
-39.8
-39.7
-39.8
-40.2
-40.5
-40.8
-41.2
-41.4
-41.1
-40.6
-39.8
-38.9
-38.0
-37.4
-37.4
-37.8
-38.3
-38.4
-38.4
-38.6
-38.9
-39.1
-39.1
-38.9
-38.8
-38.9
-39.4
-39.7
-40.2
-40.3
-40.5
-40.6
-40.8
-41.2
-41.6
-41.7
-41.9
-42.2
-42.5
-42.6
-42.6
-42.3
-41.9
-41.6
-41.2
-41.1
-40.9
-40.9
-40.8
-40.5
-39.7
-38.9
-38.3
-38.1
-38.3
-38.8
-39.4
-40.0
-40.5
-40.5
-40.2
-39.7
-39.7
-40.0
-40.6
-41.1
-41.7
-42.5
-43.0
-43.3
-43.4
-43.4
-43.1
-42.5
-41.7
-40.9
-40.0
-39.4
-38.9
-38.4
-38.3
-38.6
-39.1
-39.5
-40.0
-40.5
-40.8
-41.2
-41.7
-41.9
-42.2
-42.6
-42.8
-42.3
-41.4
-40.0
-38.8
-37.8
-37.0
-36.3
-35.3
-34.6
-33.8
-33.3
-33.2
-32.8
-32.5
-32.1
-31.4
-30.7
-29.7
-28.3
-26.9
-25.7
-24.3
-22.9
-21.0
-18.4
-14.8
-10.8
-6.9
-3.6
-1.1
0.5
1.9
2.8
3.4
3.4
2.8
1.6
-1.0
-5.0
-10.1
-15.9
-21.5
-26.6
-31.1
-34.9
-37.8
-40.0
-41.7
-43.1
-44.8
-46.7
-48.7
-50.9
-52.9
-54.5
-55.5
-56.0
-56.5
-56.8
-57.3
-57.6
-57.9
-58.2
-58.5
-58.8
-59.1
-59.4
-59.7
-59.6
-58.8
-57.3
-54.8
-51.5
-47.0
-40.8
-32.1
-19.8
-3.4
17.8
45.0
76.9
110.9
143.4
170.8
191.0
201.3
198.3
178.7
142.6
93.3
37.2
-19.5
-72.5
-118.8
-156.8
-185.6
-205.8
-218.2
-224.8
-226.5
-223.8
-217.4
-208.1
-196.6
-184.0
-170.6
-156.6
-142.2
-127.7
-114.2
-102.4
-92.7
-85.6
-80.6
-76.9
-74.1
-71.6
-69.7
-68.3
-67.4
-66.7
-66.4
-66.3
-65.8
-65.2
-64.4
-63.3
-61.9
-60.4
-59.1
-58.5
-58.0
-58.0
-58.2
-58.2
-58.0
-57.3
-56.3
-55.5
-54.8
-54.3
-54.1
-54.1
-54.3
-54.8
-55.2
-55.4
-54.9
-54.1
-53.7
-53.5
-53.5
-53.4
-52.9
-52.3
-51.5
-50.9
-50.3
-49.5
-48.7
-47.9
-47.3
-46.7
-46.2
-45.9
-45.9
-46.1
-45.8
-45.1
-44.5
-44.2
-44.2
-44.5
-45.0
-45.3
-45.3
-45.3
-45.1
-45.1
-45.1
-45.0
-44.7
-44.4
-44.0
-43.7
-43.3
-42.5
-41.6
-40.6
-39.8
-39.4
-39.5
-39.8
-40.0
-39.4
-38.0
-36.0
-33.9
-32.2
-31.1
-30.5
-30.5
-31.0
-31.4
-31.8
-31.1
-29.7
-27.9
-26.0
-24.6
-23.8
-23.0
-22.1
-20.9
-19.9
-19.2
-18.7
-18.4
-18.1
-17.3
-15.7
-14.0
-12.3
-10.9
-9.5
-8.1
-6.9
-6.2
-5.9
-5.5
-4.7
-3.8
-2.5
-1.4
-0.5
0.0
0.2
0.2
0.2
0.5
1.0
1.3
1.4
1.4
1.3
1.3
1.4
1.3
0.6
-0.5
-2.4
-4.4
-6.6
-8.3
-9.8
-11.2
-12.5
-13.6
-14.5
-15.7
-17.1
-18.7
-20.2
-21.8
-23.2
-24.4
-25.4
-26.0
-26.6
-27.6
-28.6
-29.6
-30.2
-30.5
-31.1
-31.9
-32.8
-34.1
-35.6
-37.2
-38.4
-39.2
-39.8
-40.3
-40.3
-40.3
-40.6
-40.9
-41.6
-42.0
-42.5
-43.0
-43.4
-43.7
-43.9
-44.4
-45.0
-45.6
-46.2
-46.7
-47.0
-47.3
-47.6
-48.1
-48.4
-48.6
-48.6
-48.1
-47.3
-46.5
-46.1
-46.1
-46.5
-47.2
-47.5
-47.0
-45.9
-44.8
-44.0
-43.6
-43.9
-44.4
-45.1
-45.9
-46.5
-46.7
-46.7
-46.7
-46.8
-47.0
-47.0
-46.8
-46.8
-47.0
-47.2
-47.2
-47.2
-47.0
-46.7
-46.7
-47.3
-48.1
-48.7
-48.7
-48.4
-48.1
-48.1
-48.2
-48.7
-49.2
-49.5
-49.9
-50.4
-50.9
-50.9
-50.4
-49.6
-48.9
-48.2
-48.1
-47.9
-47.9
-48.2
-48.6
-48.6
-48.2
-47.8
-47.0
-46.2
-45.8
-45.9
-46.2
-46.5
-46.7
-46.7
-46.7
-46.8
-47.0
-47.3
-47.2
-46.8
-46.4
-45.9
-45.6
-45.4
-45.1
-44.8
-44.2
-43.6
-42.6
-41.7
-41.1
-40.8
-40.5
-40.2
-40.0
-40.5
-41.4
-42.3
-43.0
-43.1
-42.8
-42.6
-42.6
-42.6
-42.8
-42.8
-42.8
-43.0
-43.1
-43.3
-43.4
-43.7
-44.2
-44.7
-45.1
-45.8
-45.9
-45.4
-44.5
-43.7
-43.1
-42.8
-42.3
-41.9
-41.7
-41.7
-42.0
-42.5
-42.8
-43.1
-43.4
-43.4
-43.6
-43.6
-43.6
-43.6
-43.6
-43.4
-43.1
-43.0
-43.3
-43.7
-44.0
-44.2
-44.4
-44.4
-44.7
-44.8
-45.0
-45.3
-45.6
-46.1
-46.5
-47.2
-47.2
-46.5
-45.6
-44.8
-44.5
-44.5
-44.7
-44.4
-43.7
-43.1
-43.0
-43.1
-43.4
-43.6
-43.6
-43.3
-43.0
-42.2
-41.1
-40.0
-39.1
-38.3
-37.5
-36.4
-35.3
-34.4
-33.8
-33.6
-33.5
-33.0
-32.2
-31.1
-29.7
-28.5
-27.1
-25.8
-24.4
-22.6
-20.4
-17.3
-13.9
-10.1
-6.9
-4.4
-2.8
-1.7
-0.8
0.3
1.9
3.0
3.6
3.4
2.5
0.3
-3.1
-8.1
-13.9
-19.6
-25.2
-29.9
-33.6
-36.7
-38.9
-40.6
-42.0
-43.1
-44.4
-45.8
-47.5
-49.6
-52.0
-54.1
-56.0
-57.1
-57.6
-57.6
-57.7
-58.2
-59.1
-60.1
-60.8
-61.5
-62.1
-62.4
-62.2
-61.3
-59.3
-56.0
-51.5
-45.8
-38.0
-27.1
-12.6
5.9
29.4
58.5
91.5
125.1
155.2
179.0
194.3
198.0
186.7
157.9
113.1
57.9
-1.1
-57.9
-108.7
-151.3
-184.8
-209.2
-225.4
-234.1
-236.6
-234.2
-227.7
-218.1
-206.4
-193.7
-180.0
-165.5
-150.1
-135.0
-121.0
-108.7
-98.6
-90.1
-82.8
-77.2
-73.6
-72.0
-71.9
-72.2
-72.3
-71.9
-70.9
-70.0
-69.1
-68.3
-67.7
-66.9
-65.8
-64.9
-63.8
-62.9
-62.1
-61.6
-61.3
-60.8
-60.2
-59.4
-58.7
-58.0
-57.9
-57.7
-57.4
-56.8
-55.7
-54.8
-54.1
-53.7
-53.4
-52.9
-52.6
-52.6
-52.7
-52.4
-51.5
-50.4
-49.2
-48.2
-47.6
-47.2
-46.8
-46.8
-47.0
-47.2
-47.3
-47.3
-47.2
-47.0
-47.0
-47.3
-47.5
-47.3
-46.7
-45.8
-45.0
-44.5
-44.2
-43.9
-43.4
-42.8
-42.3
-41.9
-41.6
-41.2
-40.8
-40.2
-39.7
-39.5
-39.5
-39.4
-39.1
-38.8
-38.1
-37.2
-36.1
-35.2
-34.6
-33.9
-33.3
-32.8
-32.4
-32.2
-31.8
-31.1
-29.9
-28.6
-27.7
-27.1
-26.8
-26.6
-26.6
-26.3
-25.5
-24.3
-23.0
-21.8
-20.7
-19.5
-18.1
-17.0
-16.0
-15.4
-15.0
-14.2
-13.1
-11.8
-10.4
-9.2
-8.1
-7.3
-6.6
-5.8
-4.7
-3.4
-2.4
-1.4
-1.0
-0.5
-0.3
0.0
0.0
0.0
0.0
-0.3
-0.8
-1.4
-2.4
-3.4
-4.4
-5.0
-5.0
-5.0
-5.2
-5.8
-6.6
-7.6
-9.0
-10.6
-12.5
-14.5
-16.5
-18.4
-20.2
-22.1
-24.0
-25.7
-27.4
-29.4
-31.3
-33.2
-34.7
-36.3
-37.5
-38.6
-39.7
-40.6
-41.6
-42.5
-43.3
-43.9
-43.9
-43.4
-43.0
-42.6
-42.6
-43.0
-43.6
-44.5
-45.4
-45.9
-45.9
-45.4
-45.1
-45.1
-45.6
-46.5
-47.8
-49.3
-50.4
-51.2
-51.3
-51.0
-50.4
-49.5
-48.7
-48.1
-47.6
-47.5
-47.3
-47.2
-46.8
-46.5
-46.5
-46.8
-47.2
-47.0
-46.7
-46.4
-45.9
-45.3
-44.8
-44.5
-44.5
-44.7
-45.3
-45.9
-46.2
-46.4
-46.4
-46.2
-45.9
-45.6
-45.4
-45.3
-45.3
-45.1
-45.3
-45.8
-46.2
-46.5
-46.5
-46.7
-47.0
-47.0
-46.7
-46.5
-46.4
-46.2
-45.8
-45.4
-45.4
-45.6
-46.1
-46.5
-46.8
-47.3
-47.6
-47.9
-47.8
-47.6
-47.3
-47.0
-47.2
-47.5
-48.1
-48.4
-48.2
-47.8
-47.3
-47.0
-47.0
-47.2
-47.5
-47.8
-47.8
-47.5
-46.7
-45.9
-45.4
-45.4
-45.6
-45.6
-45.3
-44.7
-44.2
-43.9
-43.7
-44.0
-44.5
-45.0
-45.3
-45.0
-44.5
-44.0
-43.4
-42.8
-42.5
-42.2
-42.2
-42.2
-42.2
-42.3
-42.8
-43.3
-43.6
-43.6
-43.3
-43.1
-43.3
-43.6
-43.7
-43.9
-44.2
-44.5
-45.0
-45.3
-45.6
-45.8
-45.8
-45.4
-44.8
-44.5
-44.5
-44.8
-45.1
-45.0
-44.8
-44.7
-44.7
-44.7
-45.0
-45.4
-45.9
-46.2
-46.1
-45.4
-44.5
-43.4
-42.8
-42.2
-41.9
-41.6
-41.1
-40.5
-40.2
-40.2
-40.5
-40.9
-41.4
-41.9
-42.0
-42.0
-42.2
-42.5
-43.0
-43.1
-43.1
-43.3
-43.6
-43.7
-43.6
-42.8
-42.2
-41.7
-41.4
-41.4
-41.7
-42.0
-41.7
-40.6
-38.9
-37.2
-35.6
-34.6
-34.2
-34.4
-34.7
-34.9
-34.7
-33.8
-32.2
-30.5
-28.8
-27.1
-25.8
-25.1
-24.6
-24.1
-23.2
-21.5
-19.2
-16.4
-12.8
-8.9
-4.8
-1.0
2.2
5.2
7.8
10.0
11.8
12.8
12.3
10.6
8.0
4.4
0.0
-5.3
-11.5
-17.9
-23.8
-28.8
-32.7
-35.5
-37.7
-39.2
-40.3
-41.2
-42.3
-43.9
-45.8
-47.8
-49.5
-50.9
-51.8
-52.4
-53.1
-53.7
-54.3
-54.9
-55.7
-56.3
-56.9
-57.3
-56.9
-56.3
-55.4
-54.0
-51.8
-49.0
-45.1
-40.0
-32.2
-21.2
-5.8
14.8
41.7
74.7
111.2
146.7
176.5
198.0
208.6
205.5
185.7
148.6
96.9
37.5
-23.0
-79.8
-129.6
-170.5
-201.1
-222.1
-234.2
-239.4
-238.9
-233.9
-225.8
-215.4
-203.6
-190.7
-177.0
-162.5
-147.5
-132.4
-118.1
-105.5
-94.6
-85.7
-78.7
-73.1
-68.6
-65.7
-63.9
-63.2
-63.2
-63.2
-63.0
-62.5
-61.8
-61.0
-60.1
-59.1
-58.3
-57.7
-57.1
-56.5
-55.9
-55.1
-54.1
-53.2
-52.4
-52.0
-51.8
-51.3
-50.9
-50.4
-49.9
-49.8
-49.8
-50.4
-51.5
-52.6
-52.9
-52.0
-50.6
-48.9
-47.8
-47.2
-46.8
-46.8
-46.8
-46.7
-46.7
-46.5
-46.4
-45.9
-45.0
-43.9
-42.6
-41.4
-40.3
-39.5
-38.9
-38.4
-37.8
-37.4
-36.9
-36.7
-36.9
-36.9
-37.0
-37.0
-37.0
-37.4
-37.5
-37.5
-37.4
-37.5
-37.8
-38.1
-38.4
-38.6
-38.4
-37.8
-37.0
-36.6
-36.4
-36.1
-35.5
-34.7
-33.8
-33.0
-32.2
-31.3
-30.2
-29.0
-27.6
-26.5
-25.7
-25.1
-24.8
-24.8
-24.4
-23.8
-22.7
-21.3
-20.1
-19.0
-17.8
-16.5
-15.3
-14.2
-13.6
-12.9
-12.3
-11.5
-10.4
-9.2
-8.0
-6.7
-5.5
-4.4
-3.8
-3.3
-2.8
-2.4
-1.9
-1.3
-0.6
-0.2
0.0
0.2
0.3
0.6
1.0
1.4
1.6
1.4
1.1
1.3
1.6
1.6
1.0
0.0
-1.1
-2.4
-3.6
-4.8
-6.4
-8.0
-9.8
-11.7
-13.6
-15.4
-17.0
-18.7
-20.6
-22.4
-24.4
-26.6
-29.0
-31.1
-32.8
-34.1
-35.3
-36.7
-38.4
-40.0
-41.1
-41.9
-42.2
-42.5
-42.6
-42.6
-42.3
-42.0
-42.0
-42.5
-43.1
-43.7
-44.5
-45.4
-46.5
-47.5
-48.2
-48.2
-47.8
-47.2
-46.7
-47.0
-47.6
-48.4
-49.5
-50.4
-51.3
-51.8
-52.1
-52.3
-52.4
-52.3
-52.1
-51.8
-51.7
-51.8
-51.8
-51.5
-50.9
-50.1
-50.1
-51.0
-52.4
-54.0
-54.8
-55.1
-54.8
-54.1
-53.7
-53.4
-53.4
-53.1
-52.6
-52.0
-51.0
-50.3
-49.8
-49.8
-49.9
-50.3
-50.6
-51.0
-51.3
-51.5
-51.2
-50.6
-50.1
-49.9
-49.8
-49.5
-48.7
-47.8
-47.0
-46.5
-46.4
-46.7
-47.0
-47.2
-47.0
-46.7
-46.8
-47.3
-47.8
-48.6
-49.3
-49.9
-50.4
-50.3
-49.5
-48.2
-47.2
-46.7
-47.0
-47.3
-47.3
-46.8
-46.4
-46.2
-46.1
-46.4
-46.8
-46.8
-46.7
-46.4
-45.9
-45.3
-44.4
-43.3
-42.3
-42.0
-41.9
-42.2
-42.5
-42.8
-43.1
-43.3
-43.4
-43.7
-43.7
-43.7
-43.7
-44.0
-44.2
-44.0
-43.7
-43.3
-42.8
-42.5
-42.2
-42.3
-42.3
-42.0
-41.4
-41.2
-41.6
-42.5
-43.7
-45.0
-45.8
-46.2
-46.7
-47.0
-47.2
-47.2
-46.8
-46.2
-45.4
-45.0
-44.5
-44.4
-44.4
-44.7
-45.1
-45.6
-45.4
-44.8
-43.9
-43.0
-42.2
-41.4
-40.8
-40.6
-40.6
-40.6
-40.3
-39.8
-39.4
-39.1
-38.9
-39.2
-39.8
-40.9
-41.7
-41.9
-41.4
-40.5
-39.4
-38.6
-38.0
-37.4
-36.9
-36.6
-36.3
-36.0
-35.5
-35.0
-34.6
-33.9
-32.7
-31.3
-29.7
-28.2
-26.8
-25.4
-24.1
-23.0
-22.1
-21.0
-19.0
-16.2
-12.3
-8.1
-4.1
-0.2
3.3
6.6
9.4
11.7
13.6
14.8
15.3
14.8
13.6
11.2
8.3
4.8
0.6
-3.8
-8.4
-13.2
-18.1
-22.6
-26.5
-29.9
-32.8
-35.5
-38.0
-40.5
-42.8
-45.0
-46.8
-48.2
-49.2
-49.5
-49.6
-49.6
-49.8
-50.1
-50.7
-51.8
-52.9
-53.8
-54.3
-54.5
-54.3
-54.0
-53.2
-51.5
-48.7
-44.7
-39.7
-33.3
-24.3
-11.2
6.6
30.0
59.6
94.1
130.7
164.9
192.6
211.2
218.2
209.8
183.2
138.8
80.7
16.5
-47.0
-105.2
-154.6
-194.1
-223.0
-241.7
-251.2
-253.2
-249.3
-240.8
-229.3
-216.0
-202.0
-188.1
-174.5
-161.3
-148.6
-136.1
-124.1
-113.1
-103.4
-94.7
-87.0
-79.7
-73.4
-68.5
-64.7
-61.8
-59.6
-58.2
-57.7
-57.9
-58.2
-58.3
-58.2
-57.6
-57.1
-56.5
-56.0
-55.5
-55.4
-55.4
-55.2
-54.8
-54.0
-53.5
-52.9
-52.1
-51.0
-49.8
-48.7
-47.9
-47.5
-46.8
-46.1
-45.4
-44.8
-44.7
-44.4
-43.7
-43.1
-42.6
-42.3
-42.5
-42.8
-43.1
-43.0
-42.8
-42.6
-42.5
-42.8
-43.4
-43.7
-43.6
-42.6
-41.7
-41.2
-41.1
-40.8
-40.2
-39.4
-38.8
-38.3
-38.1
-37.8
-37.5
-37.4
-37.2
-37.2
-37.5
-38.0
-38.3
-38.3
-38.0
-37.0
-36.0
-34.6
-33.5
-32.8
-32.4
-32.1
-32.1
-32.1
-31.6
-30.8
-29.9
-29.0
-27.9
-26.8
-25.4
-23.8
-22.3
-20.9
-19.8
-19.3
-19.2
-19.3
-19.5
-19.3
-19.0
-18.5
-17.4
-16.2
-14.5
-12.8
-11.1
-9.4
-7.8
-5.9
-4.1
-2.4
-1.0
0.3
1.6
3.1
4.4
5.2
5.2
4.8
4.4
4.1
4.1
4.5
5.3
6.4
7.3
8.1
8.6
8.7
8.3
7.6
7.0
6.7
6.4
6.1
5.8
5.3
4.1
2.2
0.2
-1.4
-2.8
-4.5
-6.6
-8.7
-11.2
-13.4
-15.3
-16.8
-17.9
-18.8
-20.1
-22.0
-24.3
-26.8
-29.0
-30.8
-32.5
-34.1
-35.3
-36.4
-37.5
-38.3
-38.9
-39.7
-40.6
-41.9
-43.0
-43.6
-44.0
-44.7
-45.6
-46.7
-47.9
-48.7
-48.6
-48.1
-47.6
-47.8
-48.1
-48.4
-48.9
-49.6
-50.9
-52.0
-52.6
-52.3
-51.3
-50.3
-49.8
-49.9
-50.1
-50.1
-49.8
-49.6
-49.6
-49.9
-50.3
-50.6
-51.0
-51.7
-51.8
-51.8
-51.2
-50.7
-50.4
-50.4
-50.3
-49.9
-49.6
-49.3
-49.0
-48.9
-48.9
-48.9
-48.9
-48.9
-48.6
-47.9
-47.2
-46.5
-46.2
-46.2
-46.5
-47.0
-47.5
-47.5
-47.2
-47.0
-47.3
-47.8
-48.1
-47.9
-47.3
-46.5
-45.4
-44.2
-43.1
-42.3
-42.0
-42.0
-42.3
-42.6
-42.8
-42.6
-42.5
-42.5
-42.8
-43.1
-43.6
-43.9
-43.9
-43.6
-42.8
-41.9
-41.1
-40.8
-40.8
-41.1
-41.2
-41.7
-41.9
-41.7
-41.4
-41.2
-41.4
-41.4
-41.4
-41.9
-42.6
-43.6
-44.0
-44.4
-44.8
-45.3
-45.4
-44.7
-43.4
-42.0
-40.6
-40.0
-40.3
-41.1
-42.3
-43.4
-44.2
-44.7
-44.7
-44.7
-45.0
-45.4
-45.9
-45.9
-45.3
-44.4
-44.0
-44.4
-45.3
-45.9
-46.1
-46.1
-46.1
-46.1
-45.8
-44.8
-43.7
-43.0
-42.8
-43.0
-43.4
-43.7
-44.0
-43.9
-43.3
-42.6
-42.2
-42.0
-42.2
-42.2
-42.2
-42.5
-43.1
-43.7
-44.5
-45.1
-45.4
-45.4
-44.8
-43.9
-43.1
-42.8
-43.1
-43.4
-43.9
-44.0
-43.7
-42.8
-41.7
-40.2
-38.4
-36.9
-35.8
-35.2
-34.9
-34.7
-34.7
-34.6
-34.4
-34.1
-33.3
-32.1
-30.4
-28.6
-27.1
-25.5
-24.1
-22.7
-20.9
-18.7
-16.2
-13.6
-11.2
-9.0
-7.0
-5.0
-3.0
-0.8
1.0
2.0
1.4
-0.3
-3.1
-6.6
-10.4
-14.8
-19.3
-23.8
-28.2
-31.8
-34.7
-36.4
-37.4
-37.8
-38.9
-40.6
-43.0
-45.4
-47.9
-50.1
-51.7
-52.4
-52.6
-52.6
-52.4
-52.6
-52.7
-52.7
-52.1
-51.2
-50.7
-51.3
-52.9
-54.8
-55.9
-55.7
-53.8
-50.4
-45.4
-39.2
-30.8
-19.5
-4.1
15.9
41.4
72.2
105.9
139.1
167.1
187.1
197.4
194.6
175.3
138.9
88.5
30.7
-28.2
-83.7
-132.5
-172.5
-202.4
-222.1
-232.5
-235.3
-232.5
-225.7
-215.9
-203.6
-189.9
-175.1
-160.8
-147.6
-135.8
-125.1
-115.1
-105.8
-97.4
-89.9
-83.2
-77.6
-73.1
-69.5
-66.6
-63.9
-61.5
-59.4
-58.2
-58.3
-59.1
-59.7
-59.7
-59.0
-57.6
-56.0
-54.9
-54.1
-53.5
-53.2
-53.2
-53.5
-53.7
-53.7
-53.5
-53.7
-53.5
-53.4
-53.1
-52.6
-52.1
-51.2
-49.9
-48.7
-47.6
-46.7
-45.9
-45.3
-45.0
-45.0
-45.3
-46.1
-46.8
-47.0
-46.7
-45.9
-45.0
-44.2
-43.6
-43.1
-42.5
-41.9
-41.2
-40.8
-40.5
-40.0
-39.2
-38.3
-37.7
-37.5
-37.4
-37.0
-36.7
-36.6
-36.9
-37.7
-38.3
-38.6
-38.9
-38.9
-38.8
-38.3
-37.4
-36.3
-35.0
-33.9
-33.2
-32.7
-32.2
-31.3
-30.2
-29.4
-29.3
-29.4
-29.4
-29.1
-28.8
-28.5
-28.2
-27.7
-27.1
-26.5
-25.7
-25.1
-24.3
-23.5
-22.7
-21.6
-20.2
-18.5
-16.7
-14.8
-13.1
-11.7
-10.6
-10.0
-9.4
-8.9
-8.6
-8.6
-8.6
-8.3
-7.5
-5.9
-4.1
-2.4
-1.1
-0.5
-0.5
-1.0
-1.1
-0.8
-0.2
0.5
1.1
1.3
1.4
1.4
1.3
1.1
0.8
0.3
-0.5
-1.9
-3.6
-5.2
-6.1
-6.7
-7.2
-8.0
-9.0
-10.4
-12.2
-13.7
-15.0
-16.0
-17.0
-18.5
-20.6
-22.9
-25.5
-28.0
-30.4
-32.5
-34.6
-36.4
-38.1
-39.7
-40.8
-41.6
-42.0
-42.5
-42.8
-43.1
-43.4
-43.9
-44.5
-45.1
-45.8
-46.2
-46.5
-47.3
-48.4
-49.5
-49.8
-49.3
-48.9
-48.9
-49.3
-49.8
-50.4
-51.2
-52.0
-52.4
-52.6
-52.6
-52.6
-52.6
-52.6
-52.9
-53.2
-53.7
-53.8
-54.0
-53.8
-53.8
-54.0
-54.1
-54.5
-54.8
-54.8
-54.6
-54.0
-53.5
-53.1
-52.6
-52.1
-51.7
-51.7
-52.0
-52.9
-54.1
-55.2
-56.2
-56.6
-56.9
-56.5
-55.4
-54.1
-52.7
-51.7
-50.7
-49.9
-49.5
-49.2
-49.0
-49.0
-49.0
-49.0
-49.0
-49.0
-48.9
-48.4
-47.8
-47.0
-46.5
-46.5
-46.7
-46.7
-46.8
-47.5
-48.2
-49.0
-49.6
-50.3
-51.0
-51.5
-51.5
-50.9
-50.1
-49.3
-49.2
-49.3
-49.8
-50.3
-50.4
-50.4
-50.1
-49.9
-49.8
-49.9
-49.9
-49.6
-49.0
-48.6
-48.2
-48.1
-47.8
-47.6
-47.3
-47.0
-46.7
-46.2
-46.2
-46.7
-47.0
-47.2
-47.2
-47.0
-47.0
-47.0
-47.2
-47.3
-47.5
-47.6
-47.8
-48.1
-48.6
-49.3
-50.1
-50.6
-50.7
-50.6
-50.4
-50.6
-50.6
-50.4
-50.1
-49.9
-49.9
-49.9
-49.6
-49.0
-48.6
-48.1
-47.6
-47.0
-46.4
-45.9
-45.6
-45.3
-45.1
-45.0
-44.5
-44.0
-43.6
-43.4
-43.1
-42.5
-41.7
-41.2
-41.1
-41.1
-41.1
-41.1
-41.4
-41.6
-41.9
-41.9
-41.7
-41.6
-41.7
-42.0
-42.3
-42.2
-41.9
-41.2
-40.8
-40.3
-39.5
-38.9
-38.1
-37.2
-36.1
-35.0
-34.1
-33.5
-33.3
-33.2
-32.8
-32.1
-30.7
-29.3
-27.9
-26.9
-26.5
-26.5
-26.8
-26.9
-26.2
-24.6
-22.3
-19.0
-15.3
-11.2
-7.5
-4.4
-1.4
1.4
4.2
6.1
6.7
5.8
3.9
1.3
-1.7
-5.3
-9.5
-14.5
-19.9
-25.2
-29.9
-33.5
-36.1
-38.3
-40.0
-41.6
-42.6
-43.9
-45.1
-46.8
-49.0
-51.3
-53.5
-54.9
-56.0
-56.3
-56.5
-56.3
-56.5
-57.3
-58.3
-59.4
-59.9
-59.6
-59.1
-58.3
-56.9
-54.8
-51.5
-47.0
-41.2
-33.9
-24.1
-10.6
7.3
30.5
59.0
91.5
124.9
155.4
179.5
195.1
199.1
188.4
160.7
117.6
64.7
8.3
-46.5
-96.1
-138.1
-171.4
-196.0
-212.3
-222.0
-226.0
-224.9
-219.5
-210.9
-200.2
-188.2
-175.8
-163.0
-149.9
-136.3
-122.6
-109.7
-98.3
-89.3
-82.3
-76.9
-72.5
-68.9
-66.0
-63.6
-61.6
-60.5
-60.1
-60.4
-60.7
-60.8
-60.5
-60.1
-59.4
-58.8
-58.3
-57.6
-56.5
-55.4
-54.8
-54.5
-54.5
-54.8
-55.1
-55.4
-55.4
-55.4
-55.2
-54.9
-54.8
-54.5
-54.5
-54.8
-55.2
-55.7
-55.5
-55.1
-54.5
-53.5
-52.6
-51.7
-51.0
-50.7
-50.9
-51.3
-52.3
-52.9
-53.2
-53.1
-52.7
-52.4
-52.4
-52.3
-51.8
-50.9
-49.9
-49.2
-48.6
-47.8
-47.5
-47.5
-47.5
-47.2
-46.5
-45.4
-44.4
-43.6
-43.1
-43.0
-43.0
-43.0
-43.0
-42.6
-42.2
-41.6
-40.6
-39.4
-38.3
-37.5
-37.2
-37.0
-37.2
-37.5
-37.7
-37.5
-37.2
-36.7
-36.1
-35.5
-34.6
-33.5
-32.7
-32.4
-32.4
-31.9
-31.0
-29.6
-27.9
-26.3
-24.9
-23.7
-22.6
-21.8
-21.2
-20.2
-19.3
-18.5
-17.8
-17.0
-16.0
-15.1
-14.0
-12.8
-11.4
-10.1
-9.2
-8.4
-7.5
-6.6
-5.8
-5.2
-4.8
-4.4
-3.9
-3.3
-2.8
-2.5
-2.5
-2.4
-2.2
-1.9
-2.0
-2.5
-3.0
-3.8
-4.8
-6.2
-8.0
-9.8
-11.4
-12.8
-14.2
-15.9
-17.6
-19.6
-21.6
-23.7
-25.4
-27.1
-29.1
-31.1
-33.2
-34.7
-35.8
-36.4
-36.7
-36.9
-37.2
-37.8
-38.4
-39.1
-39.4
-39.7
-40.2
-40.8
-41.6
-42.8
-44.2
-45.4
-46.4
-47.2
-47.6
-48.1
-48.6
-49.0
-49.6
-50.3
-50.9
-51.2
-51.0
-50.6
-49.9
-49.5
-49.2
-48.9
-48.9
-48.9
-48.9
-48.9
-48.9
-48.9
-49.0
-49.0
-49.0
-49.0
-49.3
-49.9
-51.0
-52.1
-52.3
-51.3
-50.1
-49.0
-48.7
-48.9
-49.3
-49.5
-49.5
-49.3
-48.9
-48.2
-47.9
-47.9
-48.1
-48.1
-48.1
-47.9
-48.2
-48.7
-49.3
-49.8
-50.1
-50.6
-51.0
-51.0
-50.9
-50.7
-50.6
-50.6
-50.4
-50.6
-50.7
-50.9
-51.2
-51.7
-52.3
-52.6
-52.9
-52.9
-53.2
-53.7
-54.1
-54.5
-54.6
-54.5
-54.0
-52.6
-50.9
-49.5
-48.7
-48.2
-47.9
-47.9
-48.2
-48.7
-48.9
-48.9
-48.7
-48.6
-48.6
-48.7
-48.6
-48.4
-48.4
-48.6
-48.6
-48.6
-48.1
-47.8
-47.8
-48.1
-48.9
-49.8
-50.7
-51.0
-51.0
-50.4
-49.3
-48.2
-47.5
-46.8
-46.5
-46.5
-46.4
-46.2
-45.8
-45.4
-45.3
-45.4
-45.6
-45.8
-45.6
-45.1
-44.7
-44.5
-44.7
-45.0
-45.4
-45.8
-46.1
-46.4
-46.5
-46.7
-46.5
-45.9
-45.0
-44.2
-43.9
-44.2
-44.7
-45.6
-46.8
-48.1
-49.3
-50.1
-50.4
-50.3
-49.9
-49.3
-48.6
-47.9
-47.3
-47.3
-47.3
-47.3
-47.3
-47.0
-47.0
-47.2
-47.0
-46.7
-46.2
-45.9
-46.1
-46.4
-46.4
-46.2
-45.8
-45.3
-45.0
-44.8
-45.0
-45.1
-45.1
-44.8
-44.0
-43.1
-42.0
-40.9
-39.8
-38.9
-37.8
-37.0
-36.9
-36.9
-36.6
-35.8
-34.7
-33.6
-32.5
-31.1
-29.6
-28.0
-26.8
-25.5
-24.1
-22.3
-19.9
-17.0
-13.4
-10.0
-7.0
-4.2
-1.7
0.6
3.1
5.2
6.2
6.1
4.5
2.0
-1.3
-5.5
-10.6
-16.4
-22.3
-27.4
-31.6
-34.9
-37.8
-40.5
-43.1
-45.3
-47.0
-48.6
-49.9
-51.2
-52.3
-53.2
-54.0
-54.9
-55.7
-56.5
-56.9
-56.8
-56.3
-55.9
-55.9
-56.2
-56.6
-57.1
-57.1
-56.5
-54.9
-52.7
-49.6
-45.4
-40.0
-32.5
-22.3
-8.4
10.0
33.8
63.2
96.8
131.1
161.9
186.0
201.3
205.2
194.4
166.9
123.5
69.7
12.3
-43.0
-92.6
-134.4
-167.7
-192.6
-209.4
-218.7
-222.0
-220.2
-214.6
-205.8
-194.7
-182.5
-169.2
-155.2
-140.5
-125.7
-111.8
-99.4
-88.8
-80.0
-73.3
-68.8
-66.0
-64.4
-63.8
-64.1
-64.6
-64.7
-64.4
-63.5
-62.2
-61.1
-60.8
-60.7
-60.7
-60.2
-59.3
-57.9
-56.3
-55.2
-54.9
-55.1
-55.1
-54.9
-54.8
-54.3
-54.0
-53.5
-53.2
-52.9
-52.9
-52.9
-52.9
-52.6
-52.0
-51.0
-50.3
-49.6
-49.2
-48.7
-48.2
-47.8
-47.3
-47.2
-47.0
-47.3
-47.5
-47.3
-46.8
-46.1
-45.3
-44.5
-44.0
-43.9
-44.0
-44.4
-44.5
-44.5
-44.4
-43.9
-43.3
-42.8
-42.8
-43.3
-43.9
-44.4
-44.8
-45.1
-45.6
-45.9
-46.1
-45.6
-44.5
-43.4
-42.2
-40.8
-39.4
-38.0
-37.2
-36.6
-36.1
-36.0
-36.1
-36.4
-36.4
-36.3
-35.8
-35.3
-35.0
-34.7
-34.2
-33.8
-32.7
-31.6
-30.4
-29.3
-28.5
-27.9
-27.2
-26.5
-25.4
-24.4
-23.7
-22.7
-22.0
-20.9
-19.3
-17.4
-15.4
-13.6
-12.0
-10.8
-9.5
-8.6
-7.5
-6.6
-5.6
-4.8
-4.1
-3.3
-2.8
-2.8
-3.3
-3.8
-3.8
-3.6
-3.1
-2.7
-2.4
-2.2
-2.5
-2.8
-3.0
-3.0
-3.1
-3.6
-4.2
-5.3
-6.6
-8.1
-9.4
-10.6
-11.7
-12.9
-14.3
-16.4
-18.7
-21.2
-23.2
-25.1
-26.5
-27.9
-29.1
-30.2
-31.3
-32.5
-34.1
-35.8
-37.7
-39.2
-40.6
-41.6
-42.2
-42.6
-43.3
-44.2
-45.4
-46.7
-47.6
-48.2
-48.6
-48.6
-48.7
-48.9
-48.7
-48.6
-48.4
-48.4
-48.9
-49.8
-50.9
-51.8
-52.4
-52.4
-52.1
-51.8
-51.5
-51.3
-51.2
-50.9
-50.6
-50.3
-50.1
-50.1
-50.3
-50.6
-51.2
-51.8
-52.4
-52.9
-52.9
-52.3
-51.3
-50.4
-49.8
-49.5
-49.0
-48.9
-48.9
-48.7
-48.6
-48.1
-47.5
-47.0
-46.7
-46.4
-46.1
-45.9
-45.9
-45.9
-45.9
-46.1
-46.4
-46.8
-47.5
-47.9
-48.4
-48.9
-49.5
-50.1
-50.3
-49.9
-49.5
-48.7
-47.9
-47.3
-46.7
-46.7
-47.2
-47.8
-48.2
-48.4
-48.4
-48.1
-47.9
-47.8
-47.9
-48.1
-48.2
-48.2
-48.4
-48.7
-49.3
-49.9
-50.6
-50.7
-50.6
-49.9
-49.3
-49.2
-49.0
-49.0
-48.7
-48.4
-48.2
-48.6
-48.6
-48.2
-47.3
-46.1
-44.8
-43.7
-42.8
-42.3
-42.2
-42.6
-43.4
-44.0
-44.5
-44.8
-44.8
-44.5
-44.0
-43.4
-43.0
-42.8
-42.8
-42.8
-42.6
-42.5
-42.3
-42.2
-42.5
-42.8
-43.0
-43.3
-43.6
-43.7
-43.6
-43.1
-42.8
-42.5
-42.3
-42.3
-42.8
-43.4
-43.9
-44.4
-44.5
-44.2
-43.9
-43.6
-43.7
-44.0
-44.5
-44.7
-44.5
-43.9
-43.3
-42.5
-41.9
-41.1
-40.2
-39.1
-38.1
-37.5
-37.5
-38.0
-38.6
-39.4
-40.0
-40.6
-40.9
-41.2
-41.4
-41.7
-41.7
-41.6
-41.4
-40.9
-40.5
-39.8
-39.4
-39.1
-38.8
-38.4
-37.7
-36.6
-35.5
-34.4
-33.5
-33.0
-32.5
-32.1
-31.4
-30.4
-29.1
-27.6
-26.2
-24.9
-24.1
-23.4
-22.9
-22.7
-22.6
-22.1
-20.7
-18.5
-15.6
-12.5
-9.2
-6.1
-3.1
-0.5
1.7
3.9
5.9
7.3
8.0
7.6
6.2
4.1
0.8
-3.3
-8.3
-13.4
-18.2
-22.9
-27.1
-30.8
-34.1
-36.7
-38.3
-39.4
-40.5
-42.0
-44.0
-46.2
-48.1
-49.6
-50.7
-51.3
-51.5
-51.7
-52.1
-53.1
-54.1
-54.9
-55.4
-55.5
-55.7
-55.7
-55.5
-54.8
-53.2
-50.9
-47.6
-43.0
-36.6
-27.9
-16.2
-0.6
19.3
45.0
76.2
110.8
144.7
174.4
196.8
209.7
209.5
193.0
158.8
109.4
50.7
-10.1
-68.3
-119.8
-161.9
-194.1
-216.4
-229.6
-235.5
-235.6
-231.1
-223.2
-212.9
-201.3
-188.7
-175.3
-160.7
-145.4
-130.2
-116.0
-103.6
-93.0
-84.3
-77.3
-71.9
-67.8
-65.0
-63.2
-62.1
-61.3
-61.0
-60.8
-60.7
-60.2
-59.6
-59.1
-58.7
-57.7
-56.6
-55.4
-54.0
-52.7
-51.5
-50.4
-49.3
-48.6
-47.8
-47.2
-46.7
-46.5
-46.4
-45.9
-45.3
-44.5
-43.6
-43.0
-42.6
-42.3
-42.0
-41.7
-41.2
-40.8
-40.2
-39.8
-39.5
-39.2
-39.1
-39.1
-38.9
-39.1
-39.1
-39.1
-39.4
-39.7
-39.8
-39.8
-40.2
-40.5
-40.8
-40.8
-40.5
-40.0
-39.8
-39.8
-40.0
-39.8
-39.2
-38.1
-37.0
-36.1
-35.5
-35.0
-34.4
-33.8
-33.2
-32.8
-33.0
-33.3
-33.6
-33.6
-33.2
-32.2
-30.8
-29.7
-28.8
-28.2
-27.6
-26.9
-26.3
-25.8
-25.7
-25.4
-25.2
-25.1
-24.9
-24.6
-23.8
-22.9
-22.0
-21.2
-20.2
-19.0
-17.9
-17.0
-15.9
-14.5
-13.1
-11.8
-10.6
-9.2
-7.6
-5.9
-4.4
-3.0
-1.6
0.0
1.9
3.8
5.0
5.6
5.3
4.7
3.9
3.6
3.6
4.1
4.7
5.3
5.6
5.5
5.2
4.8
4.5
4.5
4.5
4.4
4.1
3.1
1.7
0.0
-2.2
-3.9
-5.2
-5.9
-6.6
-7.3
-8.4
-10.0
-12.0
-14.3
-17.0
-19.5
-21.6
-23.7
-25.8
-27.6
-29.1
-30.4
-31.8
-33.0
-34.2
-35.2
-35.8
-36.4
-37.0
-38.0
-39.2
-40.8
-42.0
-43.1
-44.0
-45.1
-45.9
-46.5
-46.8
-47.3
-47.9
-48.4
-49.2
-49.9
-50.9
-51.3
-51.5
-51.3
-51.0
-50.7
-50.7
-50.7
-50.7
-50.7
-51.0
-51.7
-52.3
-53.1
-53.5
-53.7
-53.5
-53.5
-53.8
-54.1
-54.1
-53.8
-53.4
-53.1
-53.1
-53.4
-53.7
-53.8
-53.7
-53.7
-53.5
-53.4
-53.2
-53.4
-53.5
-53.4
-53.1
-52.1
-50.9
-49.6
-48.9
-48.6
-48.7
-49.3
-50.1
-51.0
-51.5
-51.7
-51.5
-51.3
-51.2
-50.9
-50.1
-49.3
-48.6
-48.4
-48.6
-48.9
-49.3
-50.3
-51.3
-52.1
-52.4
-52.6
-52.4
-52.1
-52.1
-52.3
-52.4
-52.6
-52.4
-52.3
-51.7
-51.0
-50.4
-50.1
-49.8
-49.6
-49.5
-49.5
-49.6
-49.8
-49.5
-49.3
-49.3
-49.6
-49.8
-49.6
-49.3
-49.0
-48.6
-48.4
-48.4
-48.7
-48.6
-48.2
-47.8
-47.5
-47.6
-47.8
-47.6
-47.2
-46.4
-45.9
-45.8
-45.8
-45.9
-46.5
-47.5
-48.6
-49.2
-49.5
-49.3
-48.9
-47.9
-46.5
-45.0
-43.7
-43.1
-43.0
-43.4
-44.0
-44.7
-44.8
-44.4
-43.7
-43.0
-42.0
-41.6
-41.7
-42.3
-43.1
-43.4
-43.3
-43.0
-43.0
-43.1
-43.0
-42.6
-41.9
-41.2
-41.2
-41.7
-42.3
-43.0
-43.6
-43.9
-44.4
-44.4
-44.2
-43.9
-43.7
-43.9
-44.2
-44.5
-44.0
-42.8
-40.8
-38.4
-35.8
-33.5
-31.6
-30.8
-30.8
-31.1
-31.1
-31.0
-30.8
-30.4
-29.7
-29.0
-28.3
-28.0
-28.0
-27.7
-26.6
-24.6
-21.8
-18.4
-14.8
-10.9
-7.3
-3.8
-0.2
3.1
6.4
9.2
11.5
12.8
12.9
11.5
9.0
5.6
1.3
-3.9
-10.0
-16.2
-22.1
-26.9
-31.0
-34.1
-36.4
-38.3
-39.5
-40.8
-42.3
-44.2
-46.5
-48.9
-50.9
-52.3
-52.9
-53.1
-53.7
-54.5
-55.5
-56.5
-57.4
-58.0
-58.0
-57.6
-57.3
-56.9
-56.6
-56.2
-55.1
-52.7
-48.9
-43.3
-36.4
-27.9
-16.0
0.2
22.4
50.7
84.5
120.6
154.6
182.9
203.0
212.5
207.8
185.6
145.8
91.9
31.1
-30.2
-87.6
-137.7
-178.1
-208.0
-227.6
-238.3
-241.7
-239.7
-233.5
-224.1
-212.0
-198.0
-183.2
-168.6
-154.8
-141.7
-129.1
-117.1
-106.1
-96.1
-87.4
-79.8
-73.7
-68.8
-65.0
-61.9
-59.6
-57.7
-56.2
-54.8
-53.5
-52.7
-52.1
-51.7
-51.7
-51.8
-52.0
-51.5
-50.6
-49.8
-49.5
-49.2
-48.7
-47.9
-47.3
-46.8
-46.5
-46.4
-46.1
-45.6
-45.0
-44.5
-44.0
-43.6
-43.1
-42.8
-42.6
-42.6
-42.3
-41.9
-41.4
-41.2
-41.2
-41.1
-40.6
-40.5
-40.6
-40.9
-41.2
-41.2
-41.1
-41.1
-40.6
-39.8
-38.8
-37.5
-36.6
-35.8
-35.5
-35.5
-36.0
-36.1
-36.0
-35.8
-35.6
-35.8
-35.8
-35.6
-35.3
-35.2
-35.3
-35.8
-36.1
-35.6
-35.2
-34.9
-34.9
-34.9
-34.6
-33.9
-33.2
-32.2
-31.4
-31.0
-30.5
-29.6
-28.0
-26.5
-24.9
-23.5
-22.3
-21.6
-21.3
-20.7
-19.6
-18.5
-17.9
-17.8
-17.8
-17.6
-16.8
-15.9
-14.3
-12.6
-10.9
-9.5
-8.3
-7.3
-6.6
-5.8
-4.5
-3.1
-1.7
-0.3
1.1
2.7
4.2
5.5
6.4
7.0
7.3
7.6
8.0
8.3
8.4
8.3
8.6
9.0
9.7
9.8
10.0
10.1
10.1
9.8
9.2
8.3
6.9
5.0
3.0
0.8
-0.8
-2.5
-4.5
-7.2
-10.1
-12.8
-15.1
-17.1
-18.8
-20.7
-22.3
-23.7
-24.8
-25.8
-27.2
-29.0
-31.0
-33.0
-34.9
-36.7
-38.6
-40.5
-42.2
-43.4
-44.5
-45.3
-45.6
-45.8
-46.2
-46.8
-47.5
-47.8
-47.5
-47.3
-47.3
-47.6
-48.4
-49.8
-51.2
-52.3
-52.7
-53.1
-53.4
-53.7
-54.1
-54.8
-55.4
-56.0
-56.3
-56.3
-56.2
-56.0
-55.7
-55.5
-55.2
-54.9
-54.8
-54.5
-54.3
-54.3
-54.6
-55.1
-55.9
-56.3
-56.3
-55.7
-54.9
-54.1
-53.4
-52.7
-52.7
-53.2
-54.0
-54.3
-54.1
-53.5
-52.6
-51.8
-51.0
-50.6
-50.4
-50.4
-50.6
-50.3
-49.8
-48.9
-47.8
-47.0
-46.4
-45.9
-45.8
-45.8
-46.2
-46.7
-47.0
-46.8
-46.4
-45.6
-44.8
-44.0
-43.4
-42.8
-42.2
-42.0
-42.3
-43.3
-44.2
-45.3
-46.1
-46.5
-46.8
-47.0
-46.8
-46.5
-46.1
-45.6
-45.3
-45.4
-45.8
-46.1
-45.9
-45.4
-45.3
-45.3
-45.6
-45.8
-45.8
-45.8
-45.8
-45.6
-45.0
-44.5
-44.0
-43.6
-42.8
-42.0
-41.4
-41.1
-40.9
-40.6
-40.3
-40.2
-40.3
-40.6
-41.4
-42.3
-43.3
-43.7
-43.4
-42.8
-42.3
-42.2
-42.0
-42.2
-42.2
-42.0
-41.9
-42.2
-42.6
-43.6
-44.5
-45.0
-45.1
-45.1
-45.1
-45.3
-45.4
-45.6
-45.9
-46.2
-46.2
-45.6
-44.4
-43.1
-42.0
-41.4
-41.1
-41.1
-41.2
-41.7
-42.6
-43.6
-44.4
-44.4
-43.6
-42.5
-41.4
-40.6
-40.0
-39.5
-39.2
-39.4
-40.2
-41.2
-42.2
-42.8
-42.3
-41.4
-40.5
-39.4
-38.3
-37.4
-36.7
-36.9
-37.2
-37.2
-36.9
-36.3
-35.2
-33.9
-32.2
-30.5
-29.1
-28.0
-27.2
-26.5
-25.7
-24.6
-23.2
-21.2
-18.1
-14.3
-10.3
-6.6
-3.3
-1.0
0.8
2.0
2.8
3.3
3.4
3.3
2.4
0.0
-3.8
-8.9
-14.8
-20.7
-26.3
-31.0
-34.6
-37.4
-39.4
-40.9
-41.9
-42.8
-44.2
-46.2
-48.2
-49.8
-50.9
-52.1
-54.0
-55.5
-56.8
-57.6
-57.9
-58.3
-59.1
-60.4
-61.5
-61.9
-62.1
-61.6
-60.8
-59.4
-57.4
-54.5
-50.6
-45.4
-38.4
-28.6
-14.8
3.4
27.1
56.0
89.0
122.9
154.0
179.0
195.8
201.7
193.0
167.1
124.9
71.3
12.9
-44.0
-95.7
-139.4
-174.2
-200.0
-217.0
-226.6
-230.4
-229.1
-223.8
-215.3
-204.1
-191.5
-178.3
-165.0
-152.0
-138.8
-125.7
-112.9
-101.3
-91.3
-83.2
-77.3
-73.0
-69.9
-67.5
-65.8
-64.6
-63.6
-63.2
-62.5
-61.9
-61.1
-60.2
-59.6
-59.1
-59.0
-59.1
-59.1
-59.0
-58.2
-57.3
-56.2
-54.9
-53.7
-52.7
-52.3
-52.1
-52.1
-52.0
-51.7
-51.0
-50.3
-49.5
-48.6
-48.1
-48.1
-48.2
-48.7
-49.0
-49.2
-49.0
-48.7
-48.6
-48.6
-48.9
-49.3
-49.6
-49.6
-49.5
-49.2
-49.0
-49.3
-49.5
-49.5
-49.2
-48.4
-47.5
-46.2
-45.1
-44.0
-43.4
-42.8
-42.2
-41.6
-41.2
-41.1
-40.9
-41.1
-40.9
-40.8
-40.5
-40.0
-39.5
-38.8
-38.3
-38.3
-38.3
-38.4
-38.8
-38.8
-38.6
-38.3
-37.8
-37.4
-36.6
-35.5
-34.6
-33.6
-32.7
-31.6
-30.5
-29.3
-28.0
-27.1
-26.2
-25.5
-25.1
-24.3
-23.2
-21.6
-20.4
-19.5
-18.7
-18.1
-17.0
-15.7
-14.3
-13.2
-12.3
-11.4
-10.4
-9.4
-8.6
-7.8
-7.2
-6.4
-5.5
-4.4
-3.3
-2.4
-1.4
-0.3
0.5
1.4
1.9
2.2
2.4
2.2
2.2
1.6
0.8
-0.2
-1.1
-2.0
-3.1
-4.4
-5.6
-6.6
-7.5
-8.9
-10.9
-13.2
-15.3
-17.0
-18.7
-20.4
-22.6
-24.9
-26.9
-28.6
-29.9
-31.0
-31.9
-33.2
-34.6
-35.6
-36.7
-38.0
-39.1
-39.8
-40.5
-40.8
-41.2
-42.2
-43.4
-45.0
-46.4
-47.6
-48.7
-49.2
-49.5
-49.8
-50.3
-50.6
-50.6
-50.6
-50.6
-51.0
-51.7
-52.3
-53.1
-53.5
-53.7
-53.4
-52.9
-52.1
-51.5
-51.2
-51.0
-51.2
-51.8
-52.3
-52.6
-52.6
-52.3
-51.8
-51.7
-51.5
-51.5
-51.5
-51.3
-51.0
-51.2
-51.8
-52.4
-53.1
-53.5
-53.5
-53.2
-52.1
-50.9
-49.6
-48.6
-47.8
-47.0
-46.1
-45.3
-45.0
-45.1
-45.6
-45.9
-46.1
-45.9
-45.6
-45.1
-44.7
-44.2
-43.9
-43.9
-43.9
-44.4
-45.0
-45.6
-45.8
-45.4
-45.1
-44.7
-44.2
-44.0
-43.9
-43.7
-43.9
-44.4
-44.7
-44.5
-44.0
-43.3
-42.6
-42.3
-42.2
-42.3
-42.5
-42.6
-42.8
-43.0
-43.0
-43.1
-43.3
-43.7
-44.2
-44.5
-44.7
-44.7
-44.8
-44.8
-45.0
-45.0
-44.7
-44.2
-43.7
-43.3
-42.5
-41.9
-41.6
-41.7
-42.2
-42.3
-42.3
-42.2
-42.0
-41.7
-41.4
-40.9
-40.9
-41.1
-41.1
-40.9
-40.5
-40.0
-39.7
-39.4
-39.2
-39.5
-40.3
-40.9
-40.8
-40.3
-40.0
-39.7
-39.4
-39.1
-38.6
-38.4
-38.1
-38.0
-37.7
-37.4
-37.0
-37.0
-37.2
-38.1
-39.1
-39.7
-39.5
-38.9
-38.3
-37.8
-37.8
-38.4
-39.1
-39.5
-39.2
-38.4
-37.5
-36.4
-36.0
-35.8
-36.1
-36.3
-36.4
-36.6
-36.7
-37.0
-37.4
-38.1
-38.6
-38.8
-38.4
-38.1
-38.0
-37.7
-36.9
-35.6
-34.1
-32.5
-31.1
-29.9
-28.8
-27.7
-26.9
-26.6
-26.8
-26.9
-26.6
-26.2
-25.2
-24.0
-22.4
-21.3
-20.6
-19.9
-19.2
-17.8
-15.9
-13.4
-10.3
-7.0
-4.1
-1.6
0.5
2.5
4.4
6.4
8.0
9.2
9.5
9.2
8.0
5.2
1.0
-4.4
-10.0
-15.4
-20.7
-25.5
-29.7
-33.3
-36.1
-38.0
-39.4
-40.5
-41.7
-43.3
-44.7
-46.1
-47.8
-49.5
-50.9
-52.0
-52.6
-53.1
-53.4
-54.1
-54.8
-55.4
-55.7
-55.4
-54.3
-53.1
-51.7
-49.9
-47.6
-44.8
-41.1
-36.0
-28.2
-17.0
-1.9
17.3
41.6
70.9
104.1
137.7
167.7
191.6
206.9
210.4
198.3
168.6
123.4
67.7
8.7
-47.8
-98.2
-140.5
-173.4
-197.5
-213.9
-223.4
-226.9
-225.5
-219.8
-210.8
-199.4
-187.0
-173.7
-159.7
-145.3
-130.8
-117.0
-104.2
-92.9
-83.5
-76.5
-71.6
-68.0
-65.7
-63.8
-62.5
-61.5
-60.8
-60.4
-60.1
-59.6
-59.4
-59.3
-59.1
-58.2
-56.8
-55.1
-53.4
-52.1
-51.3
-50.6
-50.1
-50.1
-50.4
-50.9
-51.0
-50.9
-50.6
-49.9
-49.0
-48.1
-47.3
-46.7
-46.4
-46.5
-46.7
-46.8
-47.2
-47.6
-48.4
-49.2
-49.8
-49.8
-49.6
-49.2
-48.7
-48.1
-47.2
-46.2
-45.4
-45.1
-45.0
-45.1
-45.4
-45.8
-45.6
-45.1
-44.5
-43.7
-43.1
-42.5
-42.0
-41.6
-41.1
-40.8
-40.3
-40.0
-40.0
-40.2
-40.2
-39.8
-39.4
-38.8
-38.1
-37.7
-37.4
-37.2
-37.4
-37.7
-38.1
-38.1
-37.7
-36.6
-35.0
-33.3
-32.1
-31.0
-30.2
-29.3
-28.3
-27.2
-25.7
-24.1
-22.7
-21.8
-21.2
-20.7
-20.2
-19.5
-18.7
-17.6
-16.2
-14.8
-13.6
-12.5
-11.7
-11.1
-10.6
-10.1
-9.5
-8.6
-7.6
-6.7
-5.6
-4.4
-2.8
-1.1
0.2
1.1
1.4
1.6
1.9
2.7
3.8
4.8
5.6
6.1
6.2
6.2
6.4
6.7
7.3
7.6
7.3
6.4
5.0
3.6
2.4
1.0
-0.8
-3.0
-5.0
-6.6
-7.3
-8.1
-9.0
-10.4
-12.3
-14.2
-15.9
-17.1
-18.7
-20.7
-23.0
-25.2
-26.9
-28.3
-29.4
-30.2
-30.8
-31.6
-33.0
-34.9
-36.6
-38.4
-39.7
-40.5
-40.6
-40.8
-41.6
-42.8
-44.4
-45.9
-47.2
-47.9
-48.1
-47.6
-46.5
-45.3
-44.0
-43.1
-42.8
-42.5
-42.0
-41.6
-41.2
-41.2
-41.4
-41.7
-42.0
-41.9
-41.6
-40.8
-40.0
-39.7
-39.8
-40.8
-42.0
-43.0
-43.6
-43.7
-43.4
-43.1
-43.1
-43.9
-45.1
-46.4
-46.8
-46.8
-46.1
-45.1
-44.2
-43.6
-43.7
-43.9
-43.9
-43.4
-43.0
-42.8
-43.0
-43.4
-43.9
-44.4
-44.8
-44.8
-44.2
-43.1
-41.9
-41.2
-41.6
-42.8
-44.0
-45.0
-45.3
-45.1
-44.8
-44.7
-45.0
-45.6
-46.4
-46.7
-46.2
-45.6
-45.0
-44.4
-43.9
-43.7
-44.2
-45.1
-45.8
-45.8
-45.3
-44.7
-44.2
-44.0
-44.4
-45.0
-45.4
-45.6
-45.1
-44.2
-43.6
-43.1
-43.1
-43.3
-43.6
-43.7
-43.7
-43.3
-42.6
-41.6
-40.6
-39.8
-39.2
-38.8
-38.3
-38.0
-37.8
-38.0
-38.3
-38.6
-38.9
-39.4
-39.7
-39.7
-39.2
-38.4
-38.0
-37.8
-38.1
-38.8
-39.2
-39.5
-39.4
-39.1
-38.6
-38.1
-38.0
-38.0
-38.3
-38.9
-39.5
-39.8
-39.8
-39.7
-39.2
-38.6
-38.4
-38.9
-39.4
-39.5
-39.4
-39.4
-39.5
-39.8
-40.2
-40.3
-40.3
-40.0
-39.5
-39.1
-38.9
-38.9
-39.4
-40.5
-42.2
-43.9
-44.5
-43.9
-42.6
-41.4
-40.3
-39.1
-37.7
-36.3
-35.0
-33.9
-33.2
-32.5
-32.1
-31.8
-31.8
-32.1
-32.5
-32.7
-31.6
-29.9
-27.9
-26.3
-24.8
-23.4
-21.8
-19.8
-17.3
-14.8
-12.2
-9.5
-6.7
-3.9
-1.4
0.8
3.1
5.3
7.5
9.5
10.6
10.8
9.5
7.0
3.4
-1.3
-6.7
-12.8
-18.7
-24.1
-29.3
-33.9
-37.8
-40.8
-42.6
-43.7
-44.4
-45.0
-45.9
-47.2
-48.7
-50.1
-50.9
-51.3
-51.8
-52.6
-53.5
-54.5
-55.1
-55.7
-56.2
-56.9
-57.9
-58.7
-59.1
-59.1
-58.7
-57.4
-55.1
-51.5
-46.5
-39.7
-29.9
-15.9
2.7
26.5
56.0
90.5
126.6
160.1
187.1
205.3
212.2
204.2
178.6
135.5
79.8
18.8
-41.2
-96.3
-143.7
-182.1
-210.8
-229.6
-240.2
-244.2
-242.8
-237.0
-228.0
-216.7
-203.8
-190.1
-175.8
-161.1
-146.5
-132.4
-119.0
-107.0
-96.8
-88.5
-82.1
-77.3
-73.3
-69.5
-66.3
-63.6
-61.8
-60.7
-60.1
-59.7
-59.6
-59.4
-59.1
-58.7
-58.2
-57.9
-57.7
-57.6
-57.3
-56.8
-56.2
-55.2
-54.0
-52.6
-51.0
-49.8
-48.7
-47.9
-47.3
-46.8
-46.5
-46.2
-45.9
-45.8
-45.8
-45.8
-45.6
-45.1
-44.8
-44.7
-45.0
-45.3
-45.6
-45.6
-45.4
-45.0
-44.5
-44.0
-44.0
-44.0
-44.2
-44.4
-44.4
-43.9
-43.1
-41.9
-40.6
-39.8
-39.7
-40.3
-41.1
-42.0
-42.6
-42.6
-42.3
-42.0
-41.9
-41.7
-41.4
-41.1
-40.5
-39.5
-38.4
-37.7
-37.2
-36.6
-35.8
-34.4
-33.0
-31.8
-30.5
-29.3
-28.2
-27.6
-27.4
-27.6
-28.0
-28.0
-27.4
-26.3
-24.9
-23.7
-22.6
-21.8
-21.0
-20.4
-19.9
-19.3
-18.4
-17.4
-16.5
-15.4
-13.9
-12.0
-10.1
-8.4
-6.9
-5.5
-4.4
-3.9
-3.6
-3.3
-2.5
-1.1
0.3
1.9
3.1
3.9
4.4
4.8
5.2
5.5
5.9
6.4
7.0
7.5
7.5
7.0
6.2
5.5
4.8
4.4
3.9
3.3
2.5
1.4
0.3
-1.0
-2.4
-4.1
-5.9
-8.6
-11.4
-14.3
-17.1
-19.5
-21.5
-23.2
-24.4
-25.4
-26.2
-27.2
-28.6
-30.0
-31.3
-32.2
-32.8
-33.8
-35.2
-37.2
-39.8
-42.5
-44.8
-46.8
-48.4
-49.5
-50.1
-50.6
-50.9
-51.2
-51.2
-50.9
-50.4
-49.8
-49.3
-49.0
-48.9
-49.0
-49.6
-50.4
-50.6
-50.3
-49.8
-49.2
-49.0
-49.0
-49.3
-49.9
-50.7
-51.3
-51.7
-52.1
-52.6
-53.4
-54.1
-54.8
-55.1
-55.2
-54.9
-54.1
-53.7
-53.7
-54.3
-55.2
-56.2
-56.9
-57.3
-57.4
-57.6
-57.6
-57.6
-57.7
-57.7
-57.6
-57.6
-57.6
-57.1
-56.5
-55.5
-55.1
-55.1
-55.4
-55.9
-56.3
-56.8
-57.3
-57.4
-57.3
-57.1
-57.1
-57.1
-57.3
-57.1
-56.8
-56.3
-55.9
-55.7
-56.0
-56.3
-56.6
-56.6
-56.3
-55.7
-54.9
-54.3
-54.1
-54.3
-54.8
-55.1
-54.9
-54.8
-54.8
-54.9
-54.9
-54.9
-55.1
-55.2
-55.7
-55.9
-55.9
-55.7
-55.5
-55.5
-55.4
-54.9
-54.0
-53.1
-52.4
-52.1
-52.4
-52.9
-53.2
-52.9
-52.4
-51.7
-51.0
-50.7
-51.2
-52.3
-53.2
-53.7
-53.5
-52.6
-51.0
-49.2
-47.3
-46.2
-45.9
-46.4
-47.2
-48.1
-48.4
-47.8
-46.5
-45.1
-44.0
-43.1
-42.5
-41.9
-41.4
-41.2
-41.6
-42.6
-44.4
-45.9
-46.8
-47.2
-46.7
-45.9
-44.8
-43.9
-43.4
-43.3
-43.1
-42.6
-41.6
-40.2
-39.1
-38.3
-37.8
-37.2
-36.6
-36.4
-36.6
-37.2
-37.5
-37.4
-36.6
-35.5
-34.1
-33.2
-32.8
-32.5
-32.1
-31.6
-30.4
-28.2
-25.1
-21.6
-18.4
-15.3
-12.2
-8.9
-5.6
-2.7
-0.3
1.4
2.5
3.0
2.0
-0.2
-4.1
-9.7
-16.2
-22.7
-28.6
-33.9
-38.8
-43.1
-46.7
-49.2
-51.0
-52.6
-54.3
-56.5
-58.8
-60.7
-62.1
-63.0
-63.8
-64.3
-64.6
-64.3
-63.6
-62.9
-62.2
-62.4
-63.5
-65.2
-67.5
-69.7
-71.7
-73.1
-73.6
-73.0
-71.3
-68.5
-63.9
-57.4
-47.8
-34.6
-17.3
5.0
33.3
66.9
102.8
136.7
164.9
184.9
194.9
191.2
170.6
132.2
80.1
21.0
-38.6
-94.4
-143.7
-184.2
-214.5
-234.2
-245.3
-249.5
-249.0
-244.8
-236.9
-225.5
-211.5
-196.5
-181.4
-166.7
-152.3
-138.0
-124.1
-111.4
-100.2
-90.9
-83.9
-79.3
-76.9
-75.3
-74.2
-73.0
-71.9
-70.6
-69.1
-67.5
-66.0
-64.7
-63.9
-63.8
-64.1
-64.7
-66.0
-67.2
-68.1
-68.6
-68.3
-67.4
-66.1
-65.0
-64.3
-63.5
-62.5
-61.5
-60.4
-59.6
-58.7
-57.9
-57.4
-57.3
-57.6
-57.9
-58.3
-58.7
-58.8
-58.8
-58.5
-58.0
-56.9
-55.7
-54.3
-53.4
-53.2
-54.0
-55.9
-57.9
-59.6
-60.4
-60.7
-60.4
-59.3
-57.3
-54.6
-52.1
-50.6
-50.4
-51.3
-52.9
-54.6
-55.7
-55.5
-54.5
-53.2
-52.1
-51.3
-50.9
-50.3
-49.8
-49.6
-49.2
-48.2
-47.0
-45.4
-44.4
-43.6
-42.6
-41.4
-39.7
-38.0
-37.2
-37.0
-37.2
-37.5
-37.7
-37.5
-37.4
-37.0
-36.6
-35.8
-34.1
-31.8
-29.1
-26.3
-24.0
-22.6
-22.4
-23.2
-24.1
-24.6
-24.1
-22.9
-21.0
-18.8
-16.4
-14.0
-12.2
-10.6
-9.4
-8.4
-7.3
-5.9
-4.1
-2.5
-1.9
-1.9
-2.5
-3.0
-3.4
-3.9
-4.7
-5.6
-6.7
-7.5
-7.3
-6.6
-5.6
-5.0
-4.4
-3.6
-2.5
-1.9
-2.4
-3.9
-6.2
-8.7
-11.4
-13.7
-15.9
-17.6
-19.6
-22.0
-24.4
-26.3
-27.7
-29.0
-30.4
-32.4
-34.7
-37.5
-40.8
-44.0
-46.5
-48.2
-49.9
-51.7
-52.7
-52.9
-52.4
-52.0
-52.0
-52.1
-52.6
-53.4
-54.6
-56.3
-58.0
-59.1
-59.3
-58.5
-57.4
-56.3
-55.5
-55.5
-56.5
-57.9
-59.3
-60.5
-61.1
-61.1
-60.8
-60.7
-60.7
-60.2
-59.6
-59.3
-59.6
-60.1
-60.7
-61.3
-61.6
-61.5
-60.8
-59.9
-58.5
-56.9
-55.5
-54.6
-54.0
-53.5
-53.5
-53.7
-54.1
-54.6
-54.9
-55.1
-54.9
-54.5
-54.3
-54.5
-54.8
-54.9
-54.6
-53.8
-52.3
-50.3
-48.7
-48.2
-48.7
-49.8
-50.7
-50.7
-50.1
-49.6
-49.6
-50.1
-50.9
-51.8
-52.4
-52.9
-52.9
-52.6
-52.1
-51.2
-49.9
-48.7
-47.6
-46.7
-45.9
-45.3
-44.8
-44.5
-44.7
-45.1
-45.6
-46.2
-46.7
-46.8
-46.7
-46.5
-46.7
-47.2
-47.3
-47.2
-46.8
-46.1
-45.1
-44.2
-43.6
-43.7
-44.0
-44.5
-44.7
-44.8
-44.5
-44.2
-43.6
-43.3
-43.0
-42.6
-42.2
-42.0
-42.2
-42.6
-43.1
-42.8
-42.2
-41.6
-41.6
-41.7
-41.4
-40.8
-39.7
-38.4
-37.5
-37.2
-37.5
-38.0
-38.6
-39.1
-39.5
-40.2
-40.6
-41.1
-41.4
-41.2
-40.6
-39.8
-39.2
-38.9
-39.4
-40.3
-41.6
-42.6
-43.4
-43.3
-41.7
-39.5
-37.5
-35.8
-34.2
-33.0
-32.1
-31.6
-31.6
-31.3
-30.7
-29.4
-28.2
-26.9
-25.8
-24.9
-23.7
-22.1
-20.7
-19.3
-17.9
-16.2
-14.5
-12.5
-10.1
-6.9
-3.3
0.3
3.4
5.9
7.8
9.0
10.1
10.4
10.1
9.2
8.1
6.6
4.1
0.2
-5.0
-11.1
-17.1
-22.6
-27.1
-30.8
-34.1
-37.0
-39.4
-40.9
-41.9
-42.5
-42.6
-43.0
-43.4
-44.0
-44.7
-45.1
-45.4
-45.4
-45.4
-45.4
-45.6
-45.9
-46.5
-47.5
-48.2
-48.9
-49.0
-49.0
-48.6
-47.2
-44.5
-40.2
-34.1
-25.4
-13.2
3.0
24.1
50.7
82.5
117.4
151.8
181.2
203.0
215.1
214.3
197.4
163.0
113.4
54.6
-6.2
-64.3
-115.1
-156.6
-187.6
-208.4
-220.7
-226.2
-226.8
-223.4
-216.4
-206.6
-194.6
-181.2
-167.4
-153.4
-139.8
-126.5
-113.4
-101.4
-91.2
-83.1
-76.5
-71.1
-66.4
-63.2
-61.0
-59.7
-58.5
-56.9
-55.5
-54.8
-54.6
-54.6
-54.5
-54.1
-53.7
-52.9
-51.8
-50.4
-49.2
-47.6
-46.4
-45.6
-45.4
-45.6
-45.3
-44.7
-44.4
-44.2
-44.4
-44.7
-44.8
-44.4
-43.1
-41.6
-40.3
-39.8
-39.8
-40.0
-40.2
-40.6
-40.9
-40.8
-40.2
-39.2
-38.4
-38.1
-38.4
-39.2
-40.0
-40.2
-39.5
-38.4
-37.8
-37.8
-38.4
-39.2
-39.8
-40.2
-40.0
-39.2
-37.4
-35.0
-32.8
-31.3
-30.4
-29.9
-29.6
-29.1
-28.8
-28.6
-28.6
-28.6
-28.5
-28.0
-27.2
-26.5
-25.5
-24.6
-23.8
-23.2
-22.6
-22.1
-21.6
-21.3
-20.7
-19.9
-19.2
-18.2
-17.0
-15.6
-13.7
-12.0
-10.3
-9.0
-7.8
-6.4
-5.0
-3.6
-2.5
-1.4
-0.5
0.3
1.3
2.2
3.1
4.2
5.5
6.7
8.1
9.7
11.1
12.3
13.6
14.6
15.6
16.8
18.4
20.2
22.0
23.4
24.4
24.9
25.1
24.8
24.3
24.1
24.4
24.8
25.4
25.8
25.8
25.2
23.8
22.0
19.9
17.8
15.6
13.6
11.4
9.4
7.2
5.2
3.0
0.6
-1.6
-3.9
-6.2
-8.4
-10.4
-12.6
-15.0
-17.3
-19.6
-22.0
-24.0
-25.5
-26.6
-27.2
-28.2
-29.6
-31.1
-32.4
-33.3
-33.9
-34.9
-36.0
-37.2
-38.4
-39.4
-39.7
-39.4
-38.8
-38.6
-39.2
-40.5
-42.2
-43.9
-45.1
-45.9
-46.1
-46.1
-45.8
-45.4
-45.1
-45.3
-45.6
-45.3
-44.5
-43.1
-41.4
-40.3
-40.6
-42.3
-44.7
-46.7
-48.1
-49.2
-49.8
-50.1
-50.6
-50.7
-50.9
-50.4
-49.5
-48.2
-47.2
-46.2
-45.6
-45.4
-45.6
-45.4
-45.0
-44.2
-43.6
-43.4
-43.6
-43.7
-43.9
-44.0
-44.4
-44.7
-45.0
-45.1
-45.3
-45.4
-45.8
-46.1
-46.1
-45.6
-44.5
-43.3
-42.2
-41.6
-41.6
-42.0
-42.6
-42.8
-42.2
-41.1
-39.8
-38.9
-38.6
-38.6
-38.9
-38.9
-38.6
-37.8
-36.7
-36.1
-36.3
-37.4
-39.1
-40.9
-42.3
-43.3
-43.9
-44.5
-45.0
-45.0
-44.4
-43.0
-41.4
-40.2
-39.8
-40.2
-40.6
-41.2
-41.9
-42.2
-42.2
-41.7
-41.2
-41.4
-41.9
-42.2
-42.3
-42.3
-42.0
-41.4
-40.5
-40.0
-40.0
-40.2
-40.2
-40.0
-39.8
-39.8
-40.0
-40.3
-40.5
-40.6
-40.9
-41.2
-41.4
-41.2
-40.6
-39.5
-38.4
-37.5
-37.0
-37.4
-38.1
-38.8
-39.1
-38.9
-38.6
-37.8
-37.2
-36.6
-36.1
-35.8
-35.5
-35.0
-34.4
-33.5
-32.5
-31.6
-30.8
-29.9
-28.8
-27.6
-26.5
-25.5
-24.8
-23.8
-22.4
-20.7
-18.7
-16.0
-13.1
-9.8
-6.6
-3.9
-1.7
0.0
1.1
2.2
3.1
3.4
3.3
2.4
0.2
-3.3
-8.0
-13.1
-18.4
-23.4
-27.7
-31.1
-33.9
-36.0
-38.0
-40.3
-43.0
-45.3
-47.2
-48.6
-49.2
-49.3
-49.2
-49.2
-49.5
-50.1
-50.7
-51.0
-50.9
-50.6
-50.3
-50.1
-50.3
-50.7
-51.5
-52.3
-52.4
-50.7
-47.3
-42.6
-37.4
-31.3
-24.0
-14.3
-1.3
15.7
37.8
65.3
97.1
129.3
158.0
180.9
195.7
199.4
188.1
159.6
115.6
61.5
3.3
-53.7
-105.6
-149.6
-183.9
-207.6
-222.0
-228.0
-227.6
-222.4
-213.7
-202.8
-190.4
-176.4
-161.6
-146.7
-132.2
-118.5
-105.8
-94.0
-83.2
-73.7
-66.1
-60.1
-55.5
-52.4
-50.6
-49.6
-49.0
-48.7
-48.4
-47.9
-47.0
-45.9
-44.5
-43.1
-42.2
-41.7
-41.2
-41.1
-40.9
-40.8
-40.6
-40.5
-40.0
-39.2
-38.1
-36.6
-35.3
-34.2
-33.8
-33.6
-33.6
-33.5
-33.2
-32.8
-32.8
-32.8
-33.0
-33.3
-33.6
-33.8
-33.3
-32.1
-30.8
-29.6
-28.6
-27.9
-27.4
-27.1
-26.8
-26.5
-26.3
-26.3
-26.3
-26.6
-27.2
-27.9
-28.2
-28.0
-27.6
-27.1
-26.8
-26.5
-26.0
-25.2
-24.3
-23.5
-23.0
-22.7
-22.1
-21.5
-20.9
-20.6
-20.6
-20.7
-20.9
-20.7
-20.1
-18.8
-17.3
-15.7
-14.8
-14.2
-13.7
-13.1
-12.3
-11.5
-10.9
-10.3
-10.0
-9.7
-9.0
-8.3
-7.2
-6.1
-5.2
-4.4
-3.8
-3.6
-3.0
-1.9
-0.2
1.3
2.7
3.9
5.5
7.0
8.4
9.2
9.5
9.5
9.4
9.2
8.9
8.9
9.0
9.5
10.4
11.7
12.9
14.3
15.9
17.4
18.4
18.5
18.1
16.8
15.3
13.9
12.5
11.4
10.4
9.7
8.4
7.2
6.2
5.5
4.7
3.8
2.5
0.6
-1.6
-4.5
-7.6
-10.6
-13.2
-15.9
-18.4
-20.7
-22.7
-24.1
-24.9
-25.5
-26.5
-27.7
-29.3
-31.0
-32.8
-34.6
-36.1
-37.5
-38.9
-40.0
-40.6
-40.6
-40.2
-39.8
-40.0
-40.5
-40.9
-41.4
-41.9
-42.5
-43.1
-43.7
-44.4
-45.0
-45.8
-46.4
-46.7
-47.2
-47.3
-47.5
-47.8
-48.7
-49.9
-51.5
-52.4
-52.4
-52.0
-52.0
-52.7
-53.8
-54.6
-55.2
-55.7
-55.9
-55.5
-55.1
-54.5
-54.3
-54.6
-54.9
-55.1
-54.6
-53.8
-52.6
-51.3
-50.6
-50.4
-50.9
-52.0
-52.6
-52.6
-52.0
-51.3
-50.7
-49.9
-49.3
-48.7
-48.7
-49.3
-50.4
-51.5
-52.1
-52.1
-51.8
-51.2
-50.6
-50.1
-49.9
-49.9
-49.9
-49.6
-49.3
-49.2
-49.3
-49.6
-49.8
-49.5
-49.3
-49.5
-50.1
-51.3
-52.4
-53.1
-53.4
-53.2
-52.9
-52.4
-52.1
-51.7
-51.3
-51.2
-51.0
-50.7
-50.6
-50.7
-51.0
-51.3
-51.8
-52.4
-52.9
-53.4
-53.8
-54.5
-54.8
-54.9
-54.6
-54.3
-54.0
-53.7
-53.2
-52.7
-52.1
-51.7
-51.3
-51.3
-51.7
-52.1
-52.3
-52.1
-51.7
-51.0
-50.9
-50.9
-51.3
-51.8
-52.1
-52.1
-51.7
-51.2
-50.7
-50.6
-50.6
-50.6
-50.7
-51.5
-52.7
-54.0
-54.8
-55.2
-55.4
-55.5
-55.7
-55.2
-54.1
-52.7
-51.2
-50.1
-49.8
-50.4
-50.9
-51.2
-51.2
-51.2
-51.2
-50.9
-50.3
-49.8
-49.6
-50.1
-50.9
-51.5
-51.5
-50.9
-49.9
-49.0
-48.2
-47.8
-47.5
-47.0
-46.4
-45.6
-44.7
-43.6
-42.3
-41.6
-40.8
-40.3
-39.5
-38.6
-37.5
-36.7
-36.0
-35.2
-34.1
-32.1
-29.4
-26.2
-22.6
-19.0
-15.6
-12.6
-10.1
-7.8
-5.5
-3.8
-2.8
-3.0
-4.1
-6.9
-11.4
-16.8
-22.7
-28.8
-34.6
-39.4
-43.0
-45.1
-46.4
-47.2
-48.2
-49.5
-50.9
-52.4
-54.3
-56.5
-58.8
-60.8
-62.4
-63.3
-63.9
-64.6
-65.2
-65.3
-65.3
-65.2
-65.3
-65.8
-66.6
-67.2
-67.4
-66.4
-64.6
-61.5
-57.6
-52.7
-46.8
-38.9
-27.7
-12.5
8.0
34.1
65.3
99.3
132.2
160.7
182.0
194.0
194.0
178.3
145.8
99.1
44.2
-12.3
-65.8
-112.9
-151.8
-181.7
-202.8
-216.7
-224.1
-226.6
-224.4
-218.7
-210.0
-198.8
-186.3
-173.1
-159.4
-145.4
-131.4
-117.9
-105.8
-95.5
-87.3
-81.1
-76.7
-73.9
-72.3
-71.4
-70.5
-69.5
-68.8
-68.5
-68.6
-68.9
-68.8
-68.1
-67.1
-65.7
-64.4
-63.5
-63.0
-63.0
-63.5
-64.1
-64.6
-64.6
-64.3
-63.5
-62.4
-61.3
-60.4
-59.4
-58.3
-57.3
-56.5
-56.5
-56.8
-56.9
-56.9
-56.8
-56.5
-56.2
-55.9
-55.2
-54.6
-54.1
-53.5
-53.4
-53.8
-54.9
-56.0
-56.9
-57.4
-57.6
-57.1
-56.3
-55.4
-54.1
-52.9
-51.8
-50.9
-49.9
-49.2
-48.6
-47.9
-47.6
-47.8
-48.1
-48.6
-48.7
-48.6
-48.1
-47.6
-47.3
-47.0
-46.4
-45.6
-44.7
-44.0
-43.7
-43.9
-43.7
-43.4
-42.8
-42.2
-41.4
-40.6
-39.8
-38.9
-37.8
-36.9
-36.0
-35.0
-33.8
-32.2
-30.7
-29.4
-28.5
-27.9
-27.2
-26.6
-26.3
-26.0
-25.2
-24.0
-22.3
-20.6
-19.2
-17.9
-16.8
-15.9
-14.6
-13.4
-12.2
-11.2
-10.6
-10.0
-9.4
-8.9
-8.6
-8.3
-7.6
-6.6
-5.3
-4.4
-3.8
-3.4
-3.3
-3.3
-3.4
-3.8
-3.8
-3.8
-3.6
-4.1
-4.8
-5.8
-6.6
-7.3
-8.1
-9.2
-10.6
-12.3
-13.9
-15.4
-17.0
-18.4
-19.8
-21.3
-23.4
-25.8
-28.8
-31.6
-33.9
-35.3
-36.3
-36.7
-37.4
-38.3
-39.7
-41.2
-43.0
-44.2
-45.0
-45.8
-46.2
-46.8
-47.6
-49.0
-50.3
-51.0
-51.2
-51.2
-51.3
-51.7
-52.0
-52.3
-52.7
-53.4
-53.8
-54.0
-54.0
-53.4
-52.7
-52.1
-51.7
-51.3
-51.3
-51.7
-52.0
-52.4
-52.9
-53.7
-54.6
-55.5
-56.5
-57.1
-57.4
-57.4
-57.1
-56.3
-55.4
-54.5
-53.7
-52.9
-52.6
-52.4
-52.6
-53.2
-54.1
-55.1
-55.5
-55.2
-54.6
-53.8
-53.2
-52.9
-52.6
-52.7
-52.9
-53.2
-53.5
-53.7
-53.8
-53.7
-53.4
-52.6
-52.0
-51.2
-50.7
-50.6
-50.3
-49.9
-49.6
-49.3
-49.2
-49.3
-49.9
-50.6
-51.0
-51.2
-51.0
-50.9
-50.9
-51.3
-52.3
-53.2
-53.7
-53.7
-53.4
-52.7
-52.1
-51.5
-51.3
-51.3
-51.3
-51.0
-50.6
-50.3
-50.1
-49.9
-49.8
-49.5
-49.0
-48.4
-47.6
-46.7
-45.8
-45.1
-44.8
-44.8
-45.0
-45.1
-45.1
-45.1
-45.1
-45.1
-45.3
-45.3
-45.3
-45.6
-46.1
-46.8
-47.2
-46.8
-46.1
-45.4
-45.3
-45.0
-44.5
-44.0
-43.9
-43.9
-43.7
-43.6
-43.6
-43.6
-43.6
-43.6
-43.6
-43.4
-43.1
-43.1
-43.1
-43.0
-42.8
-42.5
-42.5
-42.5
-42.6
-42.8
-43.0
-43.3
-43.4
-43.4
-43.1
-42.6
-42.0
-41.4
-40.8
-40.3
-40.2
-40.0
-40.2
-40.8
-41.4
-41.7
-41.9
-41.9
-42.0
-42.0
-41.9
-41.4
-40.8
-40.2
-39.8
-39.8
-40.0
-40.5
-40.6
-40.6
-40.2
-39.7
-39.4
-39.4
-39.5
-39.5
-39.4
-38.8
-37.7
-36.3
-35.0
-33.6
-32.4
-31.0
-30.2
-29.6
-29.1
-28.3
-27.4
-26.3
-25.2
-24.4
-24.1
-24.1
-24.3
-24.6
-24.8
-23.7
-21.3
-17.9
-13.9
-10.0
-6.6
-3.4
-1.3
0.5
2.2
3.9
5.8
7.0
7.3
6.7
5.5
3.1
0.0
-3.9
-8.7
-14.0
-19.0
-23.5
-27.6
-30.7
-33.5
-36.0
-38.4
-40.9
-43.3
-45.8
-48.2
-50.6
-52.3
-53.1
-53.1
-53.1
-53.5
-54.3
-55.4
-56.3
-56.9
-57.1
-57.1
-56.8
-56.5
-56.2
-56.2
-56.0
-55.1
-52.6
-48.6
-43.1
-35.8
-26.3
-13.7
2.5
23.5
49.8
81.2
115.3
147.5
174.7
194.4
204.4
200.8
180.4
143.4
93.5
37.4
-19.0
-71.6
-117.4
-155.5
-184.9
-206.1
-219.6
-226.3
-227.4
-223.8
-216.5
-206.2
-194.3
-180.9
-166.6
-151.2
-135.0
-119.3
-105.5
-94.1
-85.3
-78.9
-74.4
-71.7
-70.0
-68.9
-68.0
-67.2
-66.4
-65.5
-64.3
-62.7
-61.1
-59.7
-58.5
-57.4
-56.6
-55.9
-55.1
-54.5
-54.1
-54.0
-53.8
-53.7
-53.7
-53.7
-53.5
-53.1
-52.6
-52.0
-51.5
-51.3
-51.8
-52.4
-52.9
-53.2
-53.1
-52.7
-52.0
-51.2
-50.7
-50.4
-50.4
-50.6
-50.9
-51.2
-51.3
-51.5
-51.0
-50.4
-49.6
-49.3
-49.3
-49.3
-48.9
-48.1
-47.2
-46.4
-46.1
-46.2
-46.7
-46.8
-46.8
-46.2
-45.3
-44.2
-43.4
-43.0
-42.8
-42.8
-43.0
-43.0
-43.1
-43.1
-43.1
-43.0
-42.8
-42.2
-41.4
-40.5
-39.4
-38.0
-36.6
-35.5
-34.7
-34.4
-34.2
-34.2
-34.6
-34.9
-35.0
-35.0
-34.9
-34.6
-33.9
-33.3
-32.2
-30.5
-28.2
-25.5
-23.2
-21.3
-20.1
-19.6
-19.5
-19.3
-19.0
-18.2
-17.4
-16.4
-15.3
-14.5
-14.0
-13.7
-12.8
-11.5
-10.4
-9.5
-8.9
-8.3
-7.5
-7.0
-6.6
-6.1
-5.5
-4.5
-3.1
-1.7
-0.5
0.0
0.0
0.0
-0.2
-0.6
-1.3
-2.2
-3.1
-3.8
-4.5
-5.8
-7.6
-9.7
-11.4
-12.8
-14.2
-15.9
-17.8
-19.6
-21.0
-22.1
-23.0
-24.1
-25.7
-28.0
-31.0
-33.8
-35.8
-36.9
-37.7
-38.6
-39.7
-40.8
-41.6
-42.0
-42.8
-43.7
-45.1
-46.8
-48.4
-49.6
-50.6
-51.5
-52.4
-52.9
-52.7
-52.1
-51.3
-50.7
-50.1
-49.6
-49.2
-48.7
-48.4
-48.6
-48.9
-49.2
-49.8
-51.0
-52.3
-53.1
-53.4
-53.2
-52.7
-52.3
-52.0
-52.0
-51.8
-51.3
-50.7
-50.1
-49.6
-49.3
-49.5
-49.9
-50.3
-50.4
-50.7
-50.7
-50.3
-49.8
-49.2
-48.7
-48.6
-48.6
-48.9
-49.2
-49.3
-49.6
-50.1
-50.6
-50.7
-50.9
-50.6
-50.4
-50.3
-50.3
-50.6
-51.2
-51.7
-52.0
-52.1
-52.4
-53.1
-53.5
-53.8
-53.8
-53.8
-53.7
-53.7
-53.8
-54.0
-54.1
-54.0
-54.0
-53.8
-53.8
-54.1
-54.5
-54.6
-54.5
-53.8
-52.7
-51.2
-49.8
-48.9
-48.7
-49.0
-49.5
-49.8
-49.6
-49.5
-49.5
-49.8
-49.9
-49.9
-49.8
-49.6
-49.2
-48.2
-47.0
-45.4
-44.4
-44.0
-44.8
-46.4
-47.9
-49.2
-49.9
-50.3
-50.1
-49.6
-49.2
-48.4
-47.9
-47.6
-47.6
-47.9
-48.1
-48.2
-48.2
-47.8
-47.3
-47.0
-46.7
-46.7
-46.4
-46.1
-46.1
-46.5
-47.5
-48.6
-49.3
-49.8
-49.6
-49.2
-48.6
-48.2
-48.1
-48.1
-48.1
-47.6
-47.0
-46.2
-45.6
-45.4
-45.3
-45.1
-44.7
-44.2
-43.9
-43.7
-44.2
-45.0
-46.1
-47.0
-47.9
-48.2
-47.9
-47.2
-46.5
-46.2
-46.4
-46.8
-47.3
-47.8
-48.2
-48.6
-48.7
-48.6
-48.7
-48.9
-49.0
-48.9
-48.7
-48.2
-47.9
-47.5
-47.2
-47.2
-47.3
-47.8
-47.8
-47.3
-46.4
-45.1
-43.7
-42.6
-41.7
-41.2
-41.2
-41.2
-40.9
-40.2
-38.9
-37.4
-36.0
-34.7
-33.9
-33.2
-32.5
-32.1
-31.8
-31.6
-31.0
-30.5
-29.7
-28.6
-27.4
-26.3
-25.4
-24.3
-23.0
-21.3
-19.2
-16.5
-13.2
-9.5
-5.5
-1.7
1.1
3.8
5.8
7.2
7.8
7.6
6.6
4.7
2.2
-1.1
-5.8
-11.4
-17.3
-23.0
-28.3
-32.7
-36.4
-39.4
-41.7
-43.7
-45.8
-47.9
-50.3
-52.1
-53.4
-54.1
-54.5
-54.6
-54.6
-54.8
-55.2
-56.2
-57.4
-59.1
-60.7
-61.6
-62.2
-62.5
-62.5
-62.2
-61.3
-59.7
-57.3
-53.8
-49.2
-43.0
-34.7
-23.7
-8.9
10.6
35.8
66.3
99.9
132.8
161.8
184.2
197.9
199.4
185.3
153.7
107.2
51.5
-6.7
-62.4
-112.0
-152.9
-184.5
-206.7
-221.3
-229.4
-232.1
-230.2
-224.6
-215.9
-205.2
-192.9
-179.8
-166.1
-151.7
-137.2
-123.0
-110.0
-98.5
-88.5
-80.4
-74.1
-69.7
-67.2
-66.0
-65.7
-65.8
-66.0
-66.0
-65.5
-64.9
-64.3
-63.8
-63.2
-62.4
-61.5
-60.4
-59.1
-57.9
-56.6
-55.5
-54.8
-54.1
-53.7
-53.5
-53.5
-53.5
-53.5
-53.4
-53.5
-53.8
-54.1
-54.3
-53.8
-53.2
-53.1
-53.2
-53.5
-53.7
-53.5
-52.9
-52.1
-51.3
-50.6
-50.1
-49.9
-49.9
-49.9
-49.8
-49.8
-50.1
-50.6
-51.3
-51.7
-51.7
-51.2
-50.9
-50.3
-49.6
-48.7
-48.1
-47.5
-47.2
-46.8
-46.7
-46.2
-45.8
-45.1
-44.7
-44.4
-44.0
-43.7
-43.3
-42.8
-42.2
-41.2
-40.2
-39.2
-38.4
-37.5
-36.9
-36.3
-35.8
-35.2
-34.1
-32.8
-31.9
-31.1
-30.7
-30.4
-30.2
-29.9
-29.7
-29.4
-29.3
-28.8
-28.2
-27.4
-26.8
-26.2
-25.7
-24.9
-24.0
-22.4
-20.7
-18.7
-16.8
-15.4
-14.2
-13.1
-11.8
-10.4
-9.4
-8.6
-8.1
-8.0
-8.0
-7.6
-6.9
-5.6
-4.4
-3.4
-2.8
-2.5
-2.0
-1.7
-1.9
-2.2
-1.9
-1.4
-1.0
-1.0
-1.1
-1.4
-1.6
-1.6
-1.4
-1.4
-2.0
-3.3
-4.7
-6.2
-8.1
-10.4
-12.9
-14.8
-16.4
-17.4
-19.0
-20.9
-22.9
-24.4
-25.4
-25.7
-26.2
-26.8
-27.9
-29.4
-31.1
-32.7
-34.1
-35.3
-36.3
-37.0
-37.8
-38.8
-39.7
-40.5
-41.2
-42.0
-43.0
-43.6
-44.0
-44.4
-44.5
-44.7
-44.8
-45.3
-46.1
-46.8
-47.0
-46.7
-45.9
-45.3
-44.7
-44.4
-43.9
-43.4
-43.1
-43.3
-43.7
-44.4
-45.1
-45.9
-46.4
-46.2
-45.9
-45.8
-46.1
-46.5
-47.2
-47.8
-48.1
-48.1
-47.6
-47.0
-46.4
-46.5
-47.5
-48.9
-50.1
-50.9
-51.0
-50.9
-50.6
-50.4
-50.1
-49.9
-49.8
-49.5
-48.9
-48.2
-47.8
-47.8
-48.4
-49.3
-49.9
-50.1
-49.5
-48.6
-47.5
-46.7
-46.2
-46.1
-46.2
-46.5
-47.0
-47.3
-47.6
-47.8
-48.1
-48.2
-48.2
-48.1
-47.9
-47.6
-47.3
-46.5
-45.4
-44.2
-43.3
-42.6
-42.5
-43.3
-44.4
-45.3
-45.3
-44.8
-44.2
-43.6
-43.1
-43.1
-43.4
-43.7
-43.9
-43.4
-42.6
-42.2
-42.3
-43.0
-43.7
-44.4
-44.7
-44.5
-44.2
-43.3
-42.0
-40.8
-39.8
-39.2
-38.8
-38.4
-38.4
-38.3
-38.1
-38.1
-38.3
-38.6
-39.1
-39.5
-40.2
-40.9
-41.9
-42.6
-43.0
-43.1
-43.1
-42.8
-42.0
-41.1
-40.0
-38.8
-37.8
-37.4
-37.2
-37.4
-37.5
-37.5
-37.0
-36.4
-36.0
-35.5
-35.2
-34.9
-34.4
-33.9
-33.8
-33.6
-33.6
-34.1
-35.0
-36.3
-37.7
-38.9
-40.0
-40.8
-41.2
-40.9
-40.0
-39.1
-38.0
-37.0
-36.0
-35.2
-34.6
-34.1
-33.8
-33.5
-33.0
-32.5
-32.2
-32.4
-32.8
-33.6
-34.6
-35.5
-36.4
-37.4
-38.3
-38.9
-38.8
-38.1
-37.2
-36.4
-36.0
-36.0
-36.3
-36.6
-36.6
-36.0
-35.0
-33.8
-32.5
-31.3
-30.0
-29.0
-27.9
-26.9
-26.0
-24.8
-23.5
-22.1
-20.6
-19.0
-17.3
-15.4
-14.3
-13.7
-13.2
-12.5
-10.9
-8.7
-5.3
-1.1
3.0
6.6
9.7
12.5
15.1
17.4
18.8
19.2
18.5
17.3
15.3
12.0
7.3
1.6
-4.5
-10.8
-16.5
-21.3
-25.2
-28.6
-31.8
-34.6
-37.0
-39.2
-41.2
-43.1
-44.8
-46.4
-47.8
-49.0
-49.9
-50.6
-50.9
-51.0
-51.0
-50.9
-50.7
-50.7
-51.2
-52.0
-52.9
-53.7
-53.4
-51.7
-48.7
-44.8
-39.8
-33.3
-24.4
-12.2
4.4
26.3
54.5
88.1
124.3
159.0
188.1
208.9
218.8
214.8
193.5
154.3
100.8
39.4
-22.9
-81.2
-132.1
-173.1
-203.9
-224.8
-237.2
-243.0
-243.3
-238.3
-229.3
-217.6
-204.2
-190.2
-175.9
-161.8
-147.5
-133.3
-119.3
-105.8
-93.8
-83.7
-75.9
-70.3
-66.3
-63.3
-61.1
-59.3
-57.7
-56.3
-55.2
-54.3
-53.4
-52.4
-52.3
-52.3
-52.3
-52.1
-51.5
-50.4
-49.3
-48.4
-48.1
-48.1
-48.1
-47.5
-46.7
-45.6
-44.8
-44.2
-43.9
-43.6
-43.3
-43.3
-43.4
-43.7
-44.2
-44.5
-44.8
-45.3
-45.6
-45.6
-45.4
-44.8
-43.9
-43.0
-41.9
-41.2
-41.2
-41.7
-41.9
-41.6
-40.6
-39.7
-39.1
-38.9
-39.1
-39.4
-40.0
-40.2
-40.2
-39.7
-39.2
-38.6
-37.8
-37.4
-37.0
-37.0
-36.7
-36.3
-35.6
-35.0
-34.6
-34.2
-34.1
-33.8
-33.2
-32.2
-31.4
-30.8
-30.4
-29.9
-29.6
-29.4
-29.3
-29.0
-28.8
-28.6
-28.5
-28.0
-27.4
-26.8
-26.2
-25.8
-25.5
-24.8
-23.2
-21.3
-19.3
-18.1
-17.6
-17.3
-16.7
-15.7
-14.5
-13.1
-11.5
-9.7
-8.0
-6.9
-6.2
-5.6
-4.8
-3.6
-2.0
-0.3
1.1
2.5
3.8
4.5
5.3
6.1
6.4
6.6
6.4
6.2
6.1
5.8
5.6
5.6
5.8
5.9
5.6
5.2
4.5
3.9
3.6
3.6
3.6
3.4
2.7
1.3
-0.8
-3.3
-5.6
-7.6
-9.2
-10.9
-12.8
-15.0
-17.1
-19.0
-20.7
-22.1
-23.5
-25.1
-26.6
-28.3
-30.0
-31.6
-33.0
-34.2
-35.2
-36.0
-36.4
-37.0
-38.1
-39.7
-41.4
-42.3
-42.6
-42.5
-42.3
-42.3
-42.6
-43.6
-44.8
-46.1
-47.0
-47.5
-47.6
-47.9
-48.2
-48.7
-49.3
-49.9
-50.4
-50.4
-50.3
-50.3
-50.7
-51.0
-51.3
-51.5
-52.0
-52.6
-52.9
-53.1
-52.9
-52.7
-52.6
-52.4
-51.7
-50.6
-49.3
-48.1
-47.0
-46.2
-46.2
-46.7
-47.2
-47.6
-48.1
-48.7
-49.6
-50.4
-50.6
-50.3
-49.6
-48.9
-48.1
-47.5
-47.2
-46.5
-45.6
-44.4
-43.6
-43.1
-42.6
-42.2
-41.6
-41.1
-40.9
-40.8
-41.2
-42.5
-44.2
-46.1
-47.6
-48.2
-48.2
-47.8
-47.3
-47.0
-47.0
-47.0
-46.8
-46.1
-45.0
-44.0
-43.4
-43.6
-44.0
-44.7
-45.0
-45.3
-45.4
-45.1
-44.7
-44.5
-44.7
-45.0
-45.0
-44.5
-43.6
-42.5
-41.9
-41.7
-42.2
-43.0
-43.4
-43.6
-43.4
-43.3
-43.4
-43.7
-44.4
-45.1
-45.8
-46.1
-46.1
-45.3
-44.0
-42.5
-41.1
-40.3
-40.3
-40.9
-41.9
-42.6
-43.3
-43.7
-43.7
-43.6
-43.3
-43.0
-43.0
-43.0
-43.0
-42.3
-41.2
-40.6
-40.8
-41.4
-42.2
-42.5
-42.5
-42.3
-42.0
-41.9
-41.6
-41.4
-41.4
-41.6
-41.4
-41.1
-40.5
-39.8
-39.7
-40.0
-40.6
-41.1
-41.2
-41.4
-41.7
-42.2
-42.6
-43.4
-44.2
-45.0
-45.3
-44.7
-43.3
-41.6
-40.0
-39.2
-39.1
-39.4
-39.8
-40.5
-41.1
-41.7
-42.0
-42.3
-42.6
-43.0
-43.0
-42.5
-42.0
-41.4
-40.3
-38.9
-38.0
-37.5
-37.4
-36.9
-36.3
-35.5
-34.6
-33.5
-32.4
-31.1
-29.6
-28.0
-26.6
-25.5
-24.6
-23.7
-22.4
-21.0
-19.5
-18.1
-16.0
-13.1
-9.5
-5.6
-1.9
1.3
4.2
6.7
8.6
9.4
9.7
9.2
8.4
6.9
4.5
1.0
-3.9
-9.7
-16.0
-22.4
-28.0
-32.2
-34.9
-36.0
-36.4
-37.4
-38.6
-40.5
-42.6
-45.0
-47.0
-48.4
-49.2
-49.8
-50.9
-52.3
-53.2
-54.1
-54.9
-56.0
-56.8
-57.6
-58.2
-58.8
-59.3
-59.1
-58.0
-56.2
-53.5
-49.8
-44.8
-38.0
-28.5
-14.8
4.1
28.8
58.8
93.2
129.0
161.9
188.1
205.0
209.7
198.5
168.8
122.1
63.5
0.0
-62.2
-118.5
-166.3
-204.1
-231.3
-247.6
-254.5
-254.0
-248.2
-238.9
-227.1
-213.7
-199.6
-184.9
-170.5
-156.3
-143.0
-130.4
-118.7
-107.8
-97.9
-88.8
-81.2
-75.3
-70.9
-68.1
-66.3
-64.7
-63.2
-61.1
-58.8
-56.6
-55.5
-55.7
-56.5
-57.1
-57.3
-56.6
-55.5
-54.5
-53.1
-51.7
-50.9
-50.9
-51.0
-50.9
-50.6
-49.9
-48.9
-47.8
-46.8
-46.1
-45.3
-44.5
-43.9
-43.6
-43.4
-43.4
-43.6
-43.4
-43.3
-43.0
-42.5
-41.7
-40.6
-39.7
-39.4
-39.5
-40.3
-41.1
-41.6
-41.2
-40.0
-38.6
-37.4
-36.7
-36.6
-36.7
-37.0
-37.8
-38.4
-38.8
-38.8
-38.6
-37.8
-36.7
-35.6
-34.9
-34.1
-33.3
-33.0
-33.0
-33.3
-33.9
-34.6
-35.3
-35.6
-35.3
-34.6
-33.8
-32.7
-31.8
-30.8
-29.9
-29.0
-27.9
-26.2
-24.3
-22.6
-21.6
-21.5
-21.8
-21.8
-21.2
-20.1
-19.0
-18.2
-17.4
-16.7
-15.9
-15.3
-15.0
-14.2
-12.8
-10.6
-8.3
-5.9
-4.1
-3.1
-2.8
-2.7
-2.4
-1.9
-1.4
-0.6
0.6
2.4
3.8
5.0
6.4
8.0
9.5
10.4
10.6
10.1
9.5
9.0
8.4
8.0
7.8
8.4
9.4
9.5
8.6
7.0
4.8
2.8
0.8
-0.6
-2.0
-3.4
-4.7
-6.1
-8.0
-10.0
-12.3
-14.3
-16.2
-18.1
-20.2
-22.6
-24.8
-26.8
-28.5
-29.9
-31.0
-31.4
-32.1
-33.2
-34.7
-36.3
-38.0
-39.5
-41.1
-42.3
-43.1
-43.7
-44.7
-45.9
-47.0
-47.9
-48.4
-48.6
-48.9
-49.5
-50.3
-51.0
-51.5
-52.0
-52.3
-52.4
-52.4
-52.0
-51.7
-51.5
-51.7
-52.0
-52.3
-52.7
-53.5
-54.3
-54.8
-55.1
-55.1
-55.2
-55.7
-56.3
-56.5
-56.2
-55.4
-54.8
-54.6
-54.5
-54.3
-53.8
-53.1
-52.1
-51.3
-51.0
-51.0
-51.2
-51.3
-51.8
-52.1
-52.1
-51.7
-51.0
-50.4
-50.1
-49.8
-49.6
-49.3
-48.9
-48.4
-47.9
-47.3
-46.5
-45.9
-45.6
-45.6
-45.8
-45.9
-45.8
-45.6
-45.4
-45.8
-45.9
-45.8
-45.3
-44.7
-44.2
-44.2
-44.8
-46.1
-47.6
-48.6
-49.3
-50.3
-51.3
-52.4
-52.9
-52.9
-52.6
-51.8
-51.0
-50.1
-49.2
-48.4
-47.6
-47.0
-46.2
-45.6
-45.4
-45.6
-46.1
-46.2
-46.4
-46.4
-46.8
-47.5
-48.1
-48.2
-48.2
-48.4
-48.6
-48.7
-48.7
-48.7
-48.7
-48.7
-48.7
-48.7
-48.7
-48.7
-48.7
-49.0
-49.3
-49.6
-50.3
-51.2
-52.0
-52.1
-51.7
-50.6
-49.8
-49.3
-49.0
-48.9
-48.7
-48.9
-48.7
-48.4
-47.9
-47.9
-48.1
-48.7
-49.3
-49.6
-49.5
-49.0
-48.6
-48.7
-49.2
-49.6
-49.6
-49.2
-48.2
-47.0
-45.6
-44.8
-44.8
-45.4
-46.7
-47.8
-48.4
-48.6
-48.4
-48.4
-48.6
-49.0
-49.5
-49.8
-49.9
-50.1
-50.4
-50.7
-51.2
-51.7
-52.1
-52.3
-52.7
-53.1
-53.2
-52.9
-52.3
-51.3
-50.3
-49.3
-48.6
-47.9
-47.3
-46.5
-45.1
-43.7
-42.5
-41.7
-41.1
-40.6
-40.3
-40.2
-39.7
-39.1
-38.3
-37.7
-37.2
-36.9
-36.0
-34.6
-32.2
-29.3
-26.0
-22.7
-19.6
-16.5
-13.4
-10.4
-7.6
-5.2
-2.8
-0.6
1.0
1.6
0.8
-1.3
-4.4
-8.1
-12.5
-17.4
-22.7
-27.6
-31.9
-35.6
-38.9
-41.2
-43.0
-44.4
-45.6
-47.0
-48.1
-49.0
-50.1
-51.5
-52.9
-54.5
-55.7
-56.8
-57.6
-58.5
-59.0
-59.1
-58.8
-58.0
-57.3
-56.5
-56.0
-56.0
-56.2
-56.0
-54.5
-51.3
-46.8
-40.9
-33.2
-23.2
-10.1
7.2
30.2
59.3
93.2
128.3
160.2
185.3
200.8
204.2
191.9
162.2
116.7
60.8
1.3
-56.3
-108.3
-152.0
-186.0
-210.3
-225.8
-233.6
-235.3
-231.8
-224.6
-214.8
-203.1
-190.4
-177.3
-163.9
-150.7
-138.0
-125.7
-114.0
-103.4
-93.7
-85.1
-77.8
-72.0
-68.1
-65.5
-63.6
-62.2
-61.1
-60.7
-60.4
-60.1
-59.6
-59.1
-59.0
-59.0
-58.7
-58.2
-57.7
-57.1
-56.5
-55.5
-54.5
-53.8
-53.5
-53.1
-52.3
-51.0
-49.9
-48.9
-47.9
-47.5
-47.5
-47.9
-48.6
-49.2
-49.6
-50.1
-50.4
-50.7
-50.7
-50.4
-49.9
-49.6
-49.0
-48.1
-47.0
-46.5
-46.7
-47.3
-47.6
-47.3
-46.4
-45.1
-44.0
-43.3
-42.6
-42.0
-41.7
-41.7
-41.9
-41.9
-41.6
-41.4
-41.4
-41.2
-41.2
-41.1
-40.6
-40.0
-39.4
-38.9
-38.4
-38.0
-37.7
-37.2
-36.6
-35.8
-35.0
-34.1
-33.3
-32.7
-32.4
-32.5
-33.3
-33.8
-33.3
-32.1
-30.2
-28.6
-27.4
-26.8
-26.3
-26.0
-25.2
-24.1
-22.9
-21.5
-20.7
-20.2
-19.9
-19.3
-18.5
-17.8
-17.1
-16.4
-15.0
-13.4
-11.8
-10.1
-8.6
-7.2
-6.2
-5.3
-4.2
-3.0
-2.0
-1.6
-1.6
-1.6
-1.6
-1.4
-1.0
-0.3
0.2
0.6
1.3
1.6
1.6
1.1
0.3
-0.5
-1.3
-2.0
-2.8
-3.6
-4.4
-5.2
-5.8
-6.1
-6.6
-7.3
-9.0
-11.2
-13.6
-15.9
-18.1
-19.6
-21.0
-22.4
-24.0
-25.7
-27.4
-29.1
-30.5
-31.4
-31.9
-32.7
-34.1
-35.8
-37.8
-39.7
-41.4
-42.8
-43.6
-44.2
-45.0
-45.9
-47.2
-48.2
-49.0
-49.8
-50.4
-51.0
-51.5
-52.1
-52.6
-53.1
-53.1
-53.2
-53.5
-54.1
-54.9
-55.5
-56.0
-56.5
-56.3
-55.7
-54.9
-54.1
-53.5
-52.9
-52.1
-51.5
-50.9
-50.3
-49.8
-49.2
-49.0
-49.3
-50.3
-50.9
-50.9
-50.7
-50.3
-49.9
-49.8
-49.5
-49.2
-48.9
-48.4
-48.1
-47.9
-47.8
-47.8
-47.5
-47.2
-46.7
-46.5
-46.4
-46.4
-46.5
-46.8
-46.8
-46.4
-45.6
-44.8
-43.7
-43.0
-42.3
-41.9
-41.2
-40.5
-40.0
-39.7
-39.5
-39.7
-39.8
-40.0
-40.2
-40.2
-40.3
-40.8
-41.4
-42.0
-42.3
-42.8
-43.1
-43.4
-43.3
-43.1
-42.3
-41.2
-39.8
-38.8
-38.3
-38.3
-38.6
-39.1
-39.7
-40.5
-41.1
-41.4
-41.7
-42.0
-42.5
-42.5
-42.2
-41.6
-40.9
-40.5
-40.3
-40.0
-39.8
-39.7
-39.7
-39.7
-39.2
-38.4
-38.0
-37.8
-38.0
-38.3
-38.1
-38.1
-38.6
-39.1
-39.7
-40.3
-41.1
-41.7
-42.0
-42.0
-41.9
-41.9
-42.0
-42.0
-42.0
-41.9
-41.6
-41.1
-40.3
-39.5
-38.8
-38.0
-37.8
-38.1
-38.6
-39.1
-39.1
-39.1
-39.2
-39.7
-40.3
-41.1
-41.7
-42.0
-41.9
-41.7
-41.7
-41.6
-41.6
-41.7
-42.2
-42.6
-42.8
-43.0
-42.8
-42.8
-42.5
-42.3
-42.2
-42.2
-42.0
-42.0
-41.7
-41.2
-40.9
-41.2
-41.7
-42.0
-42.3
-42.5
-42.8
-43.0
-43.1
-42.8
-42.5
-42.3
-42.5
-42.6
-42.6
-42.5
-42.5
-42.8
-43.4
-44.2
-44.5
-44.4
-43.7
-42.8
-41.7
-40.8
-40.3
-40.3
-40.6
-40.8
-40.6
-40.5
-40.2
-39.8
-39.2
-38.1
-36.9
-36.0
-35.2
-34.9
-34.6
-34.1
-33.3
-32.7
-32.1
-31.4
-30.5
-29.3
-28.0
-26.9
-26.0
-25.2
-24.6
-23.7
-22.0
-19.5
-16.4
-12.8
-9.2
-5.9
-3.3
-1.3
0.2
1.9
3.4
4.7
5.3
5.3
4.4
2.7
-0.5
-5.2
-10.8
-16.7
-22.3
-27.4
-31.8
-35.0
-37.4
-39.1
-40.6
-42.3
-44.2
-45.8
-47.0
-47.9
-48.9
-49.5
-50.3
-51.0
-52.0
-52.9
-53.4
-53.8
-54.1
-54.6
-55.1
-55.5
-55.5
-55.4
-54.9
-54.1
-52.6
-49.8
-46.1
-41.1
-34.4
-25.1
-12.2
5.2
27.7
55.5
87.9
121.5
152.7
178.6
196.9
205.2
199.7
177.3
138.0
86.5
29.3
-27.2
-79.3
-124.1
-160.1
-186.8
-205.3
-216.5
-222.0
-222.6
-218.8
-211.8
-202.2
-190.7
-178.3
-164.9
-150.7
-136.1
-121.8
-108.6
-97.1
-87.7
-80.9
-76.1
-72.8
-70.3
-68.8
-67.5
-66.4
-65.2
-63.6
-62.2
-61.3
-60.8
-60.4
-59.9
-59.4
-59.0
-58.5
-57.9
-57.1
-56.3
-55.5
-54.8
-54.0
-53.1
-52.1
-51.5
-51.3
-51.5
-52.0
-52.4
-53.1
-53.5
-53.7
-53.4
-52.7
-52.1
-51.2
-50.4
-49.8
-49.0
-48.1
-47.2
-46.5
-46.4
-46.1
-45.9
-46.1
-46.2
-46.5
-47.0
-47.2
-47.0
-46.5
-46.2
-46.4
-46.7
-46.7
-46.2
-45.6
-45.0
-44.7
-44.5
-44.5
-44.5
-44.2
-43.9
-43.1
-42.3
-41.4
-40.8
-40.3
-39.8
-39.4
-38.9
-38.6
-38.3
-38.3
-38.1
-37.7
-37.2
-36.7
-36.4
-36.3
-36.0
-35.3
-34.6
-33.5
-32.5
-31.6
-30.8
-30.0
-29.6
-29.3
-29.1
-28.8
-28.2
-27.7
-26.9
-25.8
-24.8
-23.7
-22.7
-21.5
-20.2
-18.8
-17.1
-15.4
-13.9
-12.6
-11.5
-10.6
-10.0
-9.7
-9.8
-10.1
-10.3
-10.1
-9.8
-9.4
-8.6
-7.6
-6.4
-5.2
-3.9
-2.8
-2.4
-2.2
-2.0
-1.9
-1.7
-1.6
-1.6
-1.7
-2.0
-2.5
-3.0
-3.6
-4.2
-5.0
-6.2
-7.8
-9.4
-10.9
-12.3
-13.7
-15.0
-16.2
-17.8
-19.5
-21.5
-23.5
-25.4
-26.9
-28.2
-29.4
-30.5
-31.9
-33.6
-35.6
-37.4
-38.9
-40.0
-40.8
-41.6
-42.2
-42.8
-43.3
-43.7
-44.4
-45.1
-45.9
-46.8
-47.9
-49.0
-49.9
-50.9
-51.3
-51.8
-52.3
-53.1
-53.7
-53.7
-53.1
-52.4
-52.1
-52.3
-52.9
-53.5
-53.7
-53.5
-52.9
-52.6
-52.6
-52.9
-53.5
-54.0
-54.0
-53.7
-53.2
-52.7
-52.6
-52.7
-53.4
-53.7
-53.8
-53.5
-53.5
-53.8
-54.5
-55.1
-55.5
-55.7
-55.2
-54.5
-53.4
-52.9
-52.9
-53.1
-53.2
-53.1
-52.7
-52.4
-52.4
-52.6
-52.9
-53.4
-53.8
-54.1
-54.0
-53.4
-52.6
-52.1
-51.7
-51.7
-52.1
-52.7
-53.2
-53.5
-53.7
-53.7
-53.8
-53.8
-53.8
-53.5
-53.4
-53.2
-52.6
-51.7
-50.6
-49.5
-49.0
-49.3
-49.6
-49.6
-49.5
-49.3
-49.2
-49.0
-48.9
-49.0
-49.6
-50.4
-50.9
-50.9
-50.6
-50.3
-50.1
-49.8
-49.3
-48.9
-48.1
-47.5
-47.0
-46.8
-46.8
-46.8
-46.8
-47.0
-47.0
-46.8
-46.8
-46.8
-46.7
-46.7
-47.2
-47.8
-48.4
-48.9
-49.2
-48.9
-48.6
-48.4
-48.2
-48.6
-48.9
-49.3
-49.3
-48.9
-48.1
-46.8
-45.6
-44.7
-44.2
-44.4
-44.8
-45.6
-46.2
-46.5
-46.5
-46.1
-45.9
-46.1
-46.7
-47.2
-47.2
-46.7
-46.1
-45.4
-45.4
-45.6
-46.1
-46.8
-47.6
-47.8
-46.8
-45.4
-44.2
-43.4
-43.3
-43.4
-43.6
-43.7
-44.0
-44.5
-45.0
-45.3
-45.1
-44.8
-44.0
-43.4
-43.0
-43.0
-43.3
-43.6
-43.7
-43.4
-43.0
-42.6
-42.2
-41.6
-40.9
-40.8
-41.1
-41.9
-42.8
-43.3
-43.3
-43.1
-42.8
-42.5
-42.3
-42.0
-41.9
-41.9
-42.0
-42.3
-42.6
-42.6
-42.3
-41.7
-40.8
-40.0
-39.5
-39.5
-39.4
-38.9
-38.1
-37.4
-36.7
-35.8
-35.0
-34.2
-33.3
-32.5
-31.9
-31.8
-32.1
-32.4
-32.1
-30.7
-28.6
-26.5
-24.8
-23.4
-22.3
-21.3
-20.2
-18.7
-16.2
-12.9
-9.0
-5.2
-1.9
0.6
2.8
5.0
7.3
9.4
10.9
11.4
10.8
9.0
5.5
0.0
-6.9
-13.9
-20.2
-25.4
-29.1
-31.6
-33.2
-34.4
-35.6
-37.5
-39.5
-41.6
-43.4
-45.3
-46.8
-48.6
-50.3
-52.0
-53.7
-54.8
-55.4
-55.7
-56.2
-56.8
-57.7
-58.7
-59.1
-59.0
-58.2
-56.9
-55.4
-53.1
-49.5
-44.4
-37.4
-28.0
-15.7
0.5
22.0
48.9
80.7
114.5
146.4
173.3
192.9
202.5
198.8
178.1
140.0
88.5
30.2
-28.3
-82.9
-130.0
-168.0
-196.6
-216.4
-228.2
-233.6
-233.9
-229.9
-222.9
-213.2
-201.4
-188.2
-173.7
-158.7
-143.3
-128.5
-114.8
-102.7
-92.4
-84.2
-78.3
-74.2
-71.7
-70.2
-68.9
-67.5
-66.0
-64.4
-63.3
-62.7
-62.7
-62.9
-63.0
-63.0
-62.5
-61.6
-60.5
-59.6
-59.0
-58.8
-59.0
-59.0
-58.8
-58.5
-58.0
-57.4
-56.9
-56.8
-56.9
-57.3
-57.1
-56.5
-55.7
-55.1
-54.6
-54.5
-54.3
-54.3
-54.3
-54.1
-53.8
-53.1
-52.3
-51.7
-51.0
-50.4
-49.8
-49.5
-49.0
-48.6
-47.9
-47.3
-46.8
-46.7
-46.7
-46.7
-46.5
-46.2
-45.8
-45.4
-45.1
-45.1
-45.4
-45.8
-46.2
-46.5
-46.4
-46.1
-45.4
-44.4
-43.3
-42.5
-42.3
-42.8
-43.1
-43.1
-42.6
-41.9
-40.6
-39.5
-38.3
-37.4
-36.4
-35.8
-35.2
-34.7
-34.6
-34.4
-34.2
-33.9
-33.3
-32.4
-31.4
-30.5
-29.6
-29.0
-28.3
-27.9
-26.8
-25.2
-23.2
-21.2
-19.0
-17.3
-15.9
-15.0
-14.0
-13.1
-11.8
-10.3
-8.9
-7.3
-6.1
-4.8
-4.2
-3.8
-3.6
-3.3
-3.0
-2.7
-2.7
-2.8
-2.8
-2.5
-2.0
-1.1
-0.2
0.5
1.3
1.9
2.4
2.5
2.2
1.4
0.8
0.0
-1.0
-2.4
-3.9
-5.5
-7.3
-9.4
-11.2
-12.2
-12.6
-12.8
-13.6
-15.3
-17.3
-19.2
-20.9
-22.6
-24.3
-25.7
-26.8
-27.7
-28.5
-29.1
-29.9
-30.7
-31.3
-32.1
-33.0
-34.7
-36.9
-39.1
-40.8
-41.7
-42.0
-41.7
-41.1
-40.8
-41.1
-42.0
-43.1
-44.2
-44.8
-44.8
-44.4
-43.7
-43.6
-44.0
-45.0
-45.8
-46.1
-45.9
-45.3
-44.7
-44.4
-44.5
-44.8
-45.3
-45.6
-45.9
-46.1
-46.1
-46.1
-45.9
-45.6
-45.3
-45.0
-45.0
-45.1
-45.3
-45.4
-45.4
-45.4
-45.8
-46.4
